1.159199e+002,4.380875e+002
1.178484e+002,5.134698e+002
1.197769e+002,5.909235e+002
1.217053e+002,6.710026e+002
1.236338e+002,7.232670e+002
1.255623e+002,7.357689e+002
1.274907e+002,7.274006e+002
1.294192e+002,7.167545e+002
1.313477e+002,6.997302e+002
1.332761e+002,6.846713e+002
1.352046e+002,6.788045e+002
1.371331e+002,6.856335e+002
1.390615e+002,6.754843e+002
1.409900e+002,6.330219e+002
1.429185e+002,5.708533e+002
1.448469e+002,5.100991e+002
1.467754e+002,4.477023e+002
1.487039e+002,3.898209e+002
1.506323e+002,3.401350e+002
1.525608e+002,2.981927e+002
1.544893e+002,2.632274e+002
1.564177e+002,2.345661e+002
1.583462e+002,2.120971e+002
1.602747e+002,1.966853e+002
1.622031e+002,1.945493e+002
1.641316e+002,1.931337e+002
1.660601e+002,1.855594e+002
1.679885e+002,1.687397e+002
1.699170e+002,1.534337e+002
1.718455e+002,1.412050e+002
1.737739e+002,1.321265e+002
1.757024e+002,1.245762e+002
1.776309e+002,1.190771e+002
1.795593e+002,1.146289e+002
1.814878e+002,1.103890e+002
1.834163e+002,1.058797e+002
1.853447e+002,1.020472e+002
1.872732e+002,9.855430e+001
1.892017e+002,9.542892e+001
1.911301e+002,9.470348e+001
1.930586e+002,9.711027e+001
1.949871e+002,1.018390e+002
1.969155e+002,1.085165e+002
1.988440e+002,1.232382e+002
2.007725e+002,1.341147e+002
2.027009e+002,1.363624e+002
2.046294e+002,1.299823e+002
2.065579e+002,1.224282e+002
2.084864e+002,1.154514e+002
2.104148e+002,1.080435e+002
2.123433e+002,9.773518e+001
2.142718e+002,8.131204e+001
2.162002e+002,6.583667e+001
2.181287e+002,5.405740e+001
2.200572e+002,4.688052e+001
2.219856e+002,4.158464e+001
2.239141e+002,3.861356e+001
2.258426e+002,3.736842e+001
2.277710e+002,3.597984e+001
2.296995e+002,3.443869e+001
2.316280e+002,3.280553e+001
2.335564e+002,3.104878e+001
2.354849e+002,2.795658e+001
2.374134e+002,2.652140e+001
2.393418e+002,2.872689e+001
2.412703e+002,3.262882e+001
2.431988e+002,3.401126e+001
2.451272e+002,2.985649e+001
2.470557e+002,2.499529e+001
2.489842e+002,2.161340e+001
2.509126e+002,2.000844e+001
2.528411e+002,1.930606e+001
2.547696e+002,2.026456e+001
2.566980e+002,2.220424e+001
2.586265e+002,2.333799e+001
2.605550e+002,2.321281e+001
2.624834e+002,2.253756e+001
2.644119e+002,2.130074e+001
2.663404e+002,1.913084e+001
2.682688e+002,1.783298e+001
2.701973e+002,1.855569e+001
2.721258e+002,2.073193e+001
2.740542e+002,2.189306e+001
2.759827e+002,2.047517e+001
2.779112e+002,1.926030e+001
2.798396e+002,2.035849e+001
2.817681e+002,2.432687e+001
2.836966e+002,2.705330e+001
2.856250e+002,2.677616e+001
2.875535e+002,2.432340e+001
2.894820e+002,2.308381e+001
2.914104e+002,2.316296e+001
2.933389e+002,2.415453e+001
2.952674e+002,2.583125e+001
2.971958e+002,2.810181e+001
2.991243e+002,3.131172e+001
3.010528e+002,3.654382e+001
3.029813e+002,4.281026e+001
3.049097e+002,4.711137e+001
3.068382e+002,4.948231e+001
3.087667e+002,4.988590e+001
3.106951e+002,4.799567e+001
3.126236e+002,4.280833e+001
3.145521e+002,3.851128e+001
3.164805e+002,3.616227e+001
3.184090e+002,3.489435e+001
3.203375e+002,3.272995e+001
3.222659e+002,2.859616e+001
3.241944e+002,2.517593e+001
3.261229e+002,2.347569e+001
3.280513e+002,2.422363e+001
3.299798e+002,2.501549e+001
3.319083e+002,2.518902e+001
3.338367e+002,2.563081e+001
3.357652e+002,2.746017e+001
3.376937e+002,3.133020e+001
3.396221e+002,3.552281e+001
3.415506e+002,3.949070e+001
3.434791e+002,4.315976e+001
3.454075e+002,4.679862e+001
3.473360e+002,5.060931e+001
3.492645e+002,5.427478e+001
3.511929e+002,5.787029e+001
3.531214e+002,6.245573e+001
3.550499e+002,6.475960e+001
3.569783e+002,6.362609e+001
3.589068e+002,5.899818e+001
3.608353e+002,5.420462e+001
3.627637e+002,4.818254e+001
3.646922e+002,4.287792e+001
3.666207e+002,3.949865e+001
3.685491e+002,3.932834e+001
3.704776e+002,3.841496e+001
3.724061e+002,3.546088e+001
3.743345e+002,3.120394e+001
3.762630e+002,2.831250e+001
3.781915e+002,2.760340e+001
3.801199e+002,2.733971e+001
3.820484e+002,2.680672e+001
3.839769e+002,2.612513e+001
3.859053e+002,2.470490e+001
3.878338e+002,2.092956e+001
3.897623e+002,1.685881e+001
3.916907e+002,1.582672e+001
3.936192e+002,1.963098e+001
3.955477e+002,2.335595e+001
3.974761e+002,2.537871e+001
3.994046e+002,2.541110e+001
4.013331e+002,2.507042e+001
4.032615e+002,2.368818e+001
4.051900e+002,2.240150e+001
4.071185e+002,2.228821e+001
4.090469e+002,2.387572e+001
4.109754e+002,2.505208e+001
4.129039e+002,2.502570e+001
4.148323e+002,2.404354e+001
4.167608e+002,2.368362e+001
4.186893e+002,2.384793e+001
4.206177e+002,2.462723e+001
4.225462e+002,2.676067e+001
4.244747e+002,3.081119e+001
4.264032e+002,3.245003e+001
4.283316e+002,2.875753e+001
4.302601e+002,2.291832e+001
4.321886e+002,2.047696e+001
4.341170e+002,2.339913e+001
4.360455e+002,2.608809e+001
4.379740e+002,2.558964e+001
4.399024e+002,2.230626e+001
4.418309e+002,2.216785e+001
4.437594e+002,2.747159e+001
4.456878e+002,3.466275e+001
4.476163e+002,4.141857e+001
4.495448e+002,4.734981e+001
4.514732e+002,5.410550e+001
4.534017e+002,6.378799e+001
4.553302e+002,7.459946e+001
4.572586e+002,8.228777e+001
4.591871e+002,8.830788e+001
4.611156e+002,8.980270e+001
4.630440e+002,8.316431e+001
4.649725e+002,6.864812e+001
4.669010e+002,5.678972e+001
4.688294e+002,5.068325e+001
4.707579e+002,4.678687e+001
4.726864e+002,4.231142e+001
4.746148e+002,3.523198e+001
4.765433e+002,3.005494e+001
4.784718e+002,2.758308e+001
4.804002e+002,2.740833e+001
4.823287e+002,2.815992e+001
4.842572e+002,3.120238e+001
4.861856e+002,3.336309e+001
4.881141e+002,3.295346e+001
4.900426e+002,2.871173e+001
4.919710e+002,2.637543e+001
4.938995e+002,2.681631e+001
4.958280e+002,2.860968e+001
4.977564e+002,3.058109e+001
4.996849e+002,3.294501e+001
5.016134e+002,3.486108e+001
5.035418e+002,3.550383e+001
5.054703e+002,3.538663e+001
5.073988e+002,3.678960e+001
5.093272e+002,4.197173e+001
5.112557e+002,4.630805e+001
5.131842e+002,4.756495e+001
5.151127e+002,4.599247e+001
5.170411e+002,4.439420e+001
5.189696e+002,4.319212e+001
5.208981e+002,4.212960e+001
5.228265e+002,4.110048e+001
5.247550e+002,4.045073e+001
5.266835e+002,3.917889e+001
5.286119e+002,3.622152e+001
5.305404e+002,3.266828e+001
5.324689e+002,3.042054e+001
5.343973e+002,3.028182e+001
5.363258e+002,3.075877e+001
5.382543e+002,3.198995e+001
5.401827e+002,3.404640e+001
5.421112e+002,3.440802e+001
5.440397e+002,3.128092e+001
5.459681e+002,2.781709e+001
5.478966e+002,2.582380e+001
5.498251e+002,2.558317e+001
5.517535e+002,2.599087e+001
5.536820e+002,2.736530e+001
5.556105e+002,2.910192e+001
5.575389e+002,3.026873e+001
5.594674e+002,3.097816e+001
5.613959e+002,3.112721e+001
5.633243e+002,3.038589e+001
5.652528e+002,2.897864e+001
5.671813e+002,2.778730e+001
5.691097e+002,2.736412e+001
5.710382e+002,2.667900e+001
5.729667e+002,2.456025e+001
5.748951e+002,2.073644e+001
5.768236e+002,1.938011e+001
5.787521e+002,2.312386e+001
5.806805e+002,2.814072e+001
5.826090e+002,3.096233e+001
5.845375e+002,2.835415e+001
5.864659e+002,3.002624e+001
5.883944e+002,3.957546e+001
5.903229e+002,5.341533e+001
5.922513e+002,6.522869e+001
5.941798e+002,7.693409e+001
5.961083e+002,8.324696e+001
5.980367e+002,7.961407e+001
5.999652e+002,6.726793e+001
6.018937e+002,5.952608e+001
6.038221e+002,5.289518e+001
6.057506e+002,5.358082e+001
6.076791e+002,7.082737e+001
6.096075e+002,1.048144e+002
6.115360e+002,1.265152e+002
6.134645e+002,1.278305e+002
6.153929e+002,1.176208e+002
6.173214e+002,1.013673e+002
6.192499e+002,7.195007e+001
6.211783e+002,5.037231e+001
6.231068e+002,4.147219e+001
6.250353e+002,3.985872e+001
6.269637e+002,3.704862e+001
6.288922e+002,3.200874e+001
6.308207e+002,2.834439e+001
6.327491e+002,2.800898e+001
6.346776e+002,3.013646e+001
6.366061e+002,3.130896e+001
6.385345e+002,3.012566e+001
6.404630e+002,2.934266e+001
6.423915e+002,3.042548e+001
6.443199e+002,3.305651e+001
6.462484e+002,3.434040e+001
6.481769e+002,3.306657e+001
6.501053e+002,3.131631e+001
6.520338e+002,3.002697e+001
6.539623e+002,2.892835e+001
6.558907e+002,2.925809e+001
6.578192e+002,3.199321e+001
6.597477e+002,3.547170e+001
6.616761e+002,3.800303e+001
6.636046e+002,3.935383e+001
6.655331e+002,4.112915e+001
6.674615e+002,4.414497e+001
6.693900e+002,4.769419e+001
6.713185e+002,5.090089e+001
6.732469e+002,5.510936e+001
6.751754e+002,5.729354e+001
6.771039e+002,5.718219e+001
6.790323e+002,5.461809e+001
6.809608e+002,4.920508e+001
6.828893e+002,3.739550e+001
6.848177e+002,2.882936e+001
6.867462e+002,2.887617e+001
6.886747e+002,3.698877e+001
6.906031e+002,4.114478e+001
6.925316e+002,3.818326e+001
6.944601e+002,3.444237e+001
6.963885e+002,3.208536e+001
6.983170e+002,3.111285e+001
7.002455e+002,3.132676e+001
7.021740e+002,3.458189e+001
7.041024e+002,3.721289e+001
7.060309e+002,3.667078e+001
7.079594e+002,3.125888e+001
7.098878e+002,2.810890e+001
7.118163e+002,2.862403e+001
7.137448e+002,3.049724e+001
7.156732e+002,3.175632e+001
7.176017e+002,3.229968e+001
7.195302e+002,3.309000e+001
7.214586e+002,3.412016e+001
7.233871e+002,3.564841e+001
7.253156e+002,3.783870e+001
7.272440e+002,3.994359e+001
7.291725e+002,4.424819e+001
7.311010e+002,5.061452e+001
7.330294e+002,5.939867e+001
7.349579e+002,7.311239e+001
7.368864e+002,9.782805e+001
7.388149e+002,1.127765e+002
7.407433e+002,1.044617e+002
7.426718e+002,8.196320e+001
7.446003e+002,6.460776e+001
7.465287e+002,5.557153e+001
7.484572e+002,4.862771e+001
7.503857e+002,4.359481e+001
7.523141e+002,4.004589e+001
7.542426e+002,3.568703e+001
7.561711e+002,2.832735e+001
7.580995e+002,2.352244e+001
7.600280e+002,2.508596e+001
7.619565e+002,3.166028e+001
7.638849e+002,3.628051e+001
7.658134e+002,3.617296e+001
7.677419e+002,3.633539e+001
7.696703e+002,3.820610e+001
7.715988e+002,4.187780e+001
7.735273e+002,4.642207e+001
7.754557e+002,5.506050e+001
7.773842e+002,6.099407e+001
7.793127e+002,5.958369e+001
7.812411e+002,5.145544e+001
7.831696e+002,4.493046e+001
7.850981e+002,4.174712e+001
7.870266e+002,3.963145e+001
7.889550e+002,3.704240e+001
7.908835e+002,3.350648e+001
7.928120e+002,3.371619e+001
7.947404e+002,3.802664e+001
7.966689e+002,4.592486e+001
7.985974e+002,5.706571e+001
8.005258e+002,7.135327e+001
8.024543e+002,8.890165e+001
8.043828e+002,1.111351e+002
8.063112e+002,1.356126e+002
8.082397e+002,1.634295e+002
8.101682e+002,1.990099e+002
8.120966e+002,2.205528e+002
8.140251e+002,2.178716e+002
8.159536e+002,2.088911e+002
8.178820e+002,2.060767e+002
8.198105e+002,2.096277e+002
8.217390e+002,2.112417e+002
8.236674e+002,2.141578e+002
8.255959e+002,2.110460e+002
8.275244e+002,1.959786e+002
8.294528e+002,1.629377e+002
8.313813e+002,1.324874e+002
8.333098e+002,9.808922e+001
8.352382e+002,7.041621e+001
8.371667e+002,6.138877e+001
8.390952e+002,7.109249e+001
8.410236e+002,7.887728e+001
8.429521e+002,8.080457e+001
8.448806e+002,7.922234e+001
8.468090e+002,7.523427e+001
8.487375e+002,6.765011e+001
8.506660e+002,6.069771e+001
8.525944e+002,5.411752e+001
8.545229e+002,4.835610e+001
8.564514e+002,4.381879e+001
8.583798e+002,4.046104e+001
8.603083e+002,3.815713e+001
8.622368e+002,3.771635e+001
8.641652e+002,3.765976e+001
8.660937e+002,3.656974e+001
8.680222e+002,3.371566e+001
8.699506e+002,3.336511e+001
8.718791e+002,3.882907e+001
8.738076e+002,4.421343e+001
8.757360e+002,4.506235e+001
8.776645e+002,4.065071e+001
8.795930e+002,3.794376e+001
8.815214e+002,3.848513e+001
8.834499e+002,3.985975e+001
8.853784e+002,4.096546e+001
8.873068e+002,4.183261e+001
8.892353e+002,4.171880e+001
8.911638e+002,3.818493e+001
8.930922e+002,3.570769e+001
8.950207e+002,3.682453e+001
8.969492e+002,4.207772e+001
8.988776e+002,4.665894e+001
9.008061e+002,5.011771e+001
9.027346e+002,5.332956e+001
9.046630e+002,5.808022e+001
9.065915e+002,6.354361e+001
9.085200e+002,6.450315e+001
9.104484e+002,5.801649e+001
9.123769e+002,5.001448e+001
9.143054e+002,4.166241e+001
9.162338e+002,3.309336e+001
9.181623e+002,2.816757e+001
9.200908e+002,2.868160e+001
9.220192e+002,3.039148e+001
9.239477e+002,3.272734e+001
9.258762e+002,3.533385e+001
9.278046e+002,3.683558e+001
9.297331e+002,3.599609e+001
9.316616e+002,3.622540e+001
9.335900e+002,3.947425e+001
9.355185e+002,4.473540e+001
9.374470e+002,4.922791e+001
9.393754e+002,5.234048e+001
9.413039e+002,5.541280e+001
9.432324e+002,6.080727e+001
9.451608e+002,6.586922e+001
9.470893e+002,6.428112e+001
9.490178e+002,5.319146e+001
9.509462e+002,4.440052e+001
9.528747e+002,4.169185e+001
9.548032e+002,4.237508e+001
9.567316e+002,4.392335e+001
9.586601e+002,4.709954e+001
9.605886e+002,4.842511e+001
9.625170e+002,4.514897e+001
9.644455e+002,4.126884e+001
9.663740e+002,4.014072e+001
9.683024e+002,4.230015e+001
9.702309e+002,4.639612e+001
9.721594e+002,4.909823e+001
9.740878e+002,5.636049e+001
9.760163e+002,7.300520e+001
9.779448e+002,9.832398e+001
9.798733e+002,1.277352e+002
9.818018e+002,1.552405e+002
9.837302e+002,1.937331e+002
9.856587e+002,2.446498e+002
9.875872e+002,3.074132e+002
9.895156e+002,3.988958e+002
9.914441e+002,5.914524e+002
9.933726e+002,7.307643e+002
9.953010e+002,7.648665e+002
9.972295e+002,7.044150e+002
9.991580e+002,5.949552e+002
1.001086e+003,3.996998e+002
1.003015e+003,2.325828e+002
1.004943e+003,1.403168e+002
1.006872e+003,9.853144e+001
1.008800e+003,7.514194e+001
1.010729e+003,7.580000e+001
1.012657e+003,8.136919e+001
1.014586e+003,8.754720e+001
1.016514e+003,9.682974e+001
1.018443e+003,1.124737e+002
1.020371e+003,1.375611e+002
1.022300e+003,1.617223e+002
1.024228e+003,1.960120e+002
1.026156e+003,2.204150e+002
1.028085e+003,2.165624e+002
1.030013e+003,1.874045e+002
1.031942e+003,1.559974e+002
1.033870e+003,1.194576e+002
1.035799e+003,8.884010e+001
1.037727e+003,7.040611e+001
1.039656e+003,6.329821e+001
1.041584e+003,5.548302e+001
1.043513e+003,4.309226e+001
1.045441e+003,3.457796e+001
1.047370e+003,3.359249e+001
1.049298e+003,3.756557e+001
1.051227e+003,4.073293e+001
1.053155e+003,4.323429e+001
1.055083e+003,4.476719e+001
1.057012e+003,4.415237e+001
1.058940e+003,4.318824e+001
1.060869e+003,4.407462e+001
1.062797e+003,4.739280e+001
1.064726e+003,4.880465e+001
1.066654e+003,4.537028e+001
1.068583e+003,4.167853e+001
1.070511e+003,4.033857e+001
1.072440e+003,4.160006e+001
1.074368e+003,4.251822e+001
1.076297e+003,4.298235e+001
1.078225e+003,4.329536e+001
1.080154e+003,4.351925e+001
1.082082e+003,4.370361e+001
1.084010e+003,4.404119e+001
1.085939e+003,4.482541e+001
1.087867e+003,4.506181e+001
1.089796e+003,4.421615e+001
1.091724e+003,4.271253e+001
1.093653e+003,4.053143e+001
1.095581e+003,3.659772e+001
1.097510e+003,3.553632e+001
1.099438e+003,4.057605e+001
1.101367e+003,4.609186e+001
1.103295e+003,4.846125e+001
1.105224e+003,4.739481e+001
1.107152e+003,4.617014e+001
1.109081e+003,4.266697e+001
1.111009e+003,4.135679e+001
1.112938e+003,4.575116e+001
1.114866e+003,5.333136e+001
1.116794e+003,5.827827e+001
1.118723e+003,5.985783e+001
1.120651e+003,6.031793e+001
1.122580e+003,6.020245e+001
1.124508e+003,5.932206e+001
1.126437e+003,5.706544e+001
1.128365e+003,5.237506e+001
1.130294e+003,4.976971e+001
1.132222e+003,4.966220e+001
1.134151e+003,5.133292e+001
1.136079e+003,5.386465e+001
1.138008e+003,5.755322e+001
1.139936e+003,6.545155e+001
1.141865e+003,8.136148e+001
1.143793e+003,9.561743e+001
1.145721e+003,1.066469e+002
1.147650e+003,1.132581e+002
1.149578e+003,1.132862e+002
1.151507e+003,1.053219e+002
1.153435e+003,9.696394e+001
1.155364e+003,8.839882e+001
1.157292e+003,8.153606e+001
1.159221e+003,7.843504e+001
1.161149e+003,7.992077e+001
1.163078e+003,7.929631e+001
1.165006e+003,7.079283e+001
1.166935e+003,6.696339e+001
1.168863e+003,7.346186e+001
1.170792e+003,8.743799e+001
1.172720e+003,1.022995e+002
1.174648e+003,1.216884e+002
1.176577e+003,1.327198e+002
1.178505e+003,1.277895e+002
1.180434e+003,1.167691e+002
1.182362e+003,1.072016e+002
1.184291e+003,9.905164e+001
1.186219e+003,9.165657e+001
1.188148e+003,8.008706e+001
1.190076e+003,7.648427e+001
1.192005e+003,8.534064e+001
1.193933e+003,1.055491e+002
1.195862e+003,1.338109e+002
1.197790e+003,1.774626e+002
1.199719e+003,2.177111e+002
1.201647e+003,2.627912e+002
1.203575e+003,2.969244e+002
1.205504e+003,3.031139e+002
1.207432e+003,2.775413e+002
1.209361e+003,2.480955e+002
1.211289e+003,2.109586e+002
1.213218e+003,1.751263e+002
1.215146e+003,1.421293e+002
1.217075e+003,1.137834e+002
1.219003e+003,9.440637e+001
1.220932e+003,8.616042e+001
1.222860e+003,7.920625e+001
1.224789e+003,7.127904e+001
1.226717e+003,6.340681e+001
1.228646e+003,5.587015e+001
1.230574e+003,4.842174e+001
1.232502e+003,4.368673e+001
1.234431e+003,4.392391e+001
1.236359e+003,4.436214e+001
1.238288e+003,4.311369e+001
1.240216e+003,4.138949e+001
1.242145e+003,4.187807e+001
1.244073e+003,4.570960e+001
1.246002e+003,4.885631e+001
1.247930e+003,5.216308e+001
1.249859e+003,5.374710e+001
1.251787e+003,5.091570e+001
1.253716e+003,4.493165e+001
1.255644e+003,4.142068e+001
1.257573e+003,4.135665e+001
1.259501e+003,4.234798e+001
1.261429e+003,4.403124e+001
1.263358e+003,4.606305e+001
1.265286e+003,4.841391e+001
1.267215e+003,5.137077e+001
1.269143e+003,5.265121e+001
1.271072e+003,4.896714e+001
1.273000e+003,4.675325e+001
1.274929e+003,4.850004e+001
1.276857e+003,5.361554e+001
1.278786e+003,6.010159e+001
1.280714e+003,7.121947e+001
1.282643e+003,7.902839e+001
1.284571e+003,8.105566e+001
1.286500e+003,8.161877e+001
1.288428e+003,8.247843e+001
1.290356e+003,8.410497e+001
1.292285e+003,9.150171e+001
1.294213e+003,1.072472e+002
1.296142e+003,1.242217e+002
1.298070e+003,1.474893e+002
1.299999e+003,1.660267e+002
1.301927e+003,1.647342e+002
1.303856e+003,1.421349e+002
1.305784e+003,1.236468e+002
1.307713e+003,1.142482e+002
1.309641e+003,1.082763e+002
1.311570e+003,1.048656e+002
1.313498e+003,1.027753e+002
1.315427e+003,9.812548e+001
1.317355e+003,8.727879e+001
1.319283e+003,8.202814e+001
1.321212e+003,8.680369e+001
1.323140e+003,9.381005e+001
1.325069e+003,9.891187e+001
1.326997e+003,1.021498e+002
1.328926e+003,1.039126e+002
1.330854e+003,1.032858e+002
1.332783e+003,1.027425e+002
1.334711e+003,1.045257e+002
1.336640e+003,1.052749e+002
1.338568e+003,1.004275e+002
1.340497e+003,9.062772e+001
1.342425e+003,8.343058e+001
1.344354e+003,8.061342e+001
1.346282e+003,7.820814e+001
1.348210e+003,7.408340e+001
1.350139e+003,6.987048e+001
1.352068e+003,6.802441e+001
1.353996e+003,6.878931e+001
1.355924e+003,6.773946e+001
1.357853e+003,6.255607e+001
1.359781e+003,5.785215e+001
1.361710e+003,5.572495e+001
1.363638e+003,5.520534e+001
1.365567e+003,5.426812e+001
1.367495e+003,5.230317e+001
1.369424e+003,5.164898e+001
1.371352e+003,5.385798e+001
1.373281e+003,5.581806e+001
1.375209e+003,5.594816e+001
1.377138e+003,5.471307e+001
1.379066e+003,5.350035e+001
1.380995e+003,5.157668e+001
1.382923e+003,5.109709e+001
1.384851e+003,5.365428e+001
1.386780e+003,5.629005e+001
1.388708e+003,5.590667e+001
1.390637e+003,5.389548e+001
1.392565e+003,5.572092e+001
1.394494e+003,6.164545e+001
1.396422e+003,7.057405e+001
1.398351e+003,8.591817e+001
1.400279e+003,1.009089e+002
1.402208e+003,1.131698e+002
1.404136e+003,1.214618e+002
1.406065e+003,1.192884e+002
1.407993e+003,1.027949e+002
1.409922e+003,8.637882e+001
1.411850e+003,7.335083e+001
1.413778e+003,6.269089e+001
1.415707e+003,5.215556e+001
1.417635e+003,4.242962e+001
1.419564e+003,4.127071e+001
1.421492e+003,5.304850e+001
1.423421e+003,6.535986e+001
1.425349e+003,7.785823e+001
1.427278e+003,8.823895e+001
1.429206e+003,9.370464e+001
1.431135e+003,9.428939e+001
1.433063e+003,9.610140e+001
1.434992e+003,1.028417e+002
1.436920e+003,1.055542e+002
1.438849e+003,1.024801e+002
1.440777e+003,9.564325e+001
1.442705e+003,8.487857e+001
1.444634e+003,7.063087e+001
1.446562e+003,6.091812e+001
1.448491e+003,5.614224e+001
1.450419e+003,5.474429e+001
1.452348e+003,6.019253e+001
1.454276e+003,6.587415e+001
1.456205e+003,6.497215e+001
1.458133e+003,5.891152e+001
1.460062e+003,5.644911e+001
1.461990e+003,5.889108e+001
1.463919e+003,6.192006e+001
1.465847e+003,6.581111e+001
1.467776e+003,6.860736e+001
1.469704e+003,6.767189e+001
1.471632e+003,6.440553e+001
1.473561e+003,6.368557e+001
1.475489e+003,6.612259e+001
1.477418e+003,6.992702e+001
1.479346e+003,7.607172e+001
1.481275e+003,8.190727e+001
1.483203e+003,8.664036e+001
1.485132e+003,8.974852e+001
1.487060e+003,8.889613e+001
1.488989e+003,8.275313e+001
1.490917e+003,7.694745e+001
1.492846e+003,7.302280e+001
1.494774e+003,6.932861e+001
1.496703e+003,6.438471e+001
1.498631e+003,5.914477e+001
1.500559e+003,5.662384e+001
1.502488e+003,5.781164e+001
1.504416e+003,5.887882e+001
1.506345e+003,5.916937e+001
1.508273e+003,5.966931e+001
1.510202e+003,6.051359e+001
1.512130e+003,6.190319e+001
1.514059e+003,6.457529e+001
1.515987e+003,6.984275e+001
1.517916e+003,7.236507e+001
1.519844e+003,7.041542e+001
1.521773e+003,6.822899e+001
1.523701e+003,6.736541e+001
1.525630e+003,6.681215e+001
1.527558e+003,6.468962e+001
1.529486e+003,6.053774e+001
1.531415e+003,5.911728e+001
1.533343e+003,6.278815e+001
1.535272e+003,6.581805e+001
1.537200e+003,6.750498e+001
1.539129e+003,6.772897e+001
1.541057e+003,6.520324e+001
1.542986e+003,6.059208e+001
1.544914e+003,5.966826e+001
1.546843e+003,6.478890e+001
1.548771e+003,6.754475e+001
1.550700e+003,6.426984e+001
1.552628e+003,6.005839e+001
1.554557e+003,5.789405e+001
1.556485e+003,5.725098e+001
1.558413e+003,5.657070e+001
1.560342e+003,5.563578e+001
1.562270e+003,5.585982e+001
1.564199e+003,5.627665e+001
1.566127e+003,5.961319e+001
1.568056e+003,6.824940e+001
1.569984e+003,8.007034e+001
1.571913e+003,9.233333e+001
1.573841e+003,1.050397e+002
1.575770e+003,1.202370e+002
1.577698e+003,1.443313e+002
1.579627e+003,1.564874e+002
1.581555e+003,1.383133e+002
1.583484e+003,1.146953e+002
1.585412e+003,1.029673e+002
1.587340e+003,1.025393e+002
1.589269e+003,1.129225e+002
1.591197e+003,1.374883e+002
1.593126e+003,1.589857e+002
1.595054e+003,1.744068e+002
1.596983e+003,1.843778e+002
1.598911e+003,1.908251e+002
1.600840e+003,1.916626e+002
1.602768e+003,1.810297e+002
1.604697e+003,1.579650e+002
1.606625e+003,1.358059e+002
1.608554e+003,1.144269e+002
1.610482e+003,9.723501e+001
1.612411e+003,8.434521e+001
1.614339e+003,7.689839e+001
1.616267e+003,7.927453e+001
1.618196e+003,8.968796e+001
1.620124e+003,9.146313e+001
1.622053e+003,8.043804e+001
1.623981e+003,7.214459e+001
1.625910e+003,7.110142e+001
1.627838e+003,7.176954e+001
1.629767e+003,7.179446e+001
1.631695e+003,7.169080e+001
1.633624e+003,7.295026e+001
1.635552e+003,7.605328e+001
1.637481e+003,7.661244e+001
1.639409e+003,7.291473e+001
1.641338e+003,6.906786e+001
1.643266e+003,6.572287e+001
1.645194e+003,6.300351e+001
1.647123e+003,6.107277e+001
1.649051e+003,5.986265e+001
1.650980e+003,5.902491e+001
1.652908e+003,5.859470e+001
1.654837e+003,5.834749e+001
1.656765e+003,5.852806e+001
1.658694e+003,5.851770e+001
1.660622e+003,5.803184e+001
1.662551e+003,5.730787e+001
1.664479e+003,5.631215e+001
1.666408e+003,5.497237e+001
1.668336e+003,5.561296e+001
1.670265e+003,6.015695e+001
1.672193e+003,6.293124e+001
1.674121e+003,6.224417e+001
1.676050e+003,6.063852e+001
1.677978e+003,5.868527e+001
1.679907e+003,5.695085e+001
1.681835e+003,5.700491e+001
1.683764e+003,5.953431e+001
1.685692e+003,6.023135e+001
1.687621e+003,5.786836e+001
1.689549e+003,5.538597e+001
1.691478e+003,5.185915e+001
1.693406e+003,4.993727e+001
1.695335e+003,5.377704e+001
1.697263e+003,6.068732e+001
1.699192e+003,6.096720e+001
1.701120e+003,5.199012e+001
1.703048e+003,4.600106e+001
1.704977e+003,4.436434e+001
1.706905e+003,4.480661e+001
1.708834e+003,4.852544e+001
1.710762e+003,5.251250e+001
1.712691e+003,5.372868e+001
1.714619e+003,5.282982e+001
1.716548e+003,5.355782e+001
1.718476e+003,5.683678e+001
1.720405e+003,5.876236e+001
1.722333e+003,5.809820e+001
1.724262e+003,5.729568e+001
1.726190e+003,5.726842e+001
1.728119e+003,5.724922e+001
1.730047e+003,5.630495e+001
1.731975e+003,5.459555e+001
1.733904e+003,5.343637e+001
1.735832e+003,5.287071e+001
1.737761e+003,5.271564e+001
1.739689e+003,5.333365e+001
1.741618e+003,5.385024e+001
1.743546e+003,5.370913e+001
1.745475e+003,5.354700e+001
1.747403e+003,5.424814e+001
1.749332e+003,5.558768e+001
1.751260e+003,5.588034e+001
1.753189e+003,5.491973e+001
1.755117e+003,5.371355e+001
1.757046e+003,5.174832e+001
1.758974e+003,5.065353e+001
1.760902e+003,5.225259e+001
1.762831e+003,5.395709e+001
1.764759e+003,5.283316e+001
1.766688e+003,4.970169e+001
1.768616e+003,4.834234e+001
1.770545e+003,4.904119e+001
1.772473e+003,5.010764e+001
1.774402e+003,5.167769e+001
1.776330e+003,5.280642e+001
1.778259e+003,5.275038e+001
1.780187e+003,5.242690e+001
1.782116e+003,5.260045e+001
1.784044e+003,5.309194e+001
1.785973e+003,5.340946e+001
1.787901e+003,5.355260e+001
1.789829e+003,5.360696e+001
1.791758e+003,5.367093e+001
1.793686e+003,5.347315e+001
1.795615e+003,5.279554e+001
1.797543e+003,5.195757e+001
1.799472e+003,5.081141e+001
1.801400e+003,4.980824e+001
1.803329e+003,5.000275e+001
1.805257e+003,5.135305e+001
1.807186e+003,5.237725e+001
1.809114e+003,5.304631e+001
1.811043e+003,5.301363e+001
1.812971e+003,5.072976e+001
1.814900e+003,4.945772e+001
1.816828e+003,5.285012e+001
1.818756e+003,5.726228e+001
1.820685e+003,5.638576e+001
1.822613e+003,5.123582e+001
1.824542e+003,5.029308e+001
1.826470e+003,5.548639e+001
1.828399e+003,5.877692e+001
1.830327e+003,5.706276e+001
1.832256e+003,5.568280e+001
1.834184e+003,5.797076e+001
1.836113e+003,6.026664e+001
1.838041e+003,5.805361e+001
1.839970e+003,5.293594e+001
1.841898e+003,5.080209e+001
1.843827e+003,5.242556e+001
1.845755e+003,5.430085e+001
1.847684e+003,5.834314e+001
1.849612e+003,5.980441e+001
1.851541e+003,5.475937e+001
1.853469e+003,5.014880e+001
1.855397e+003,5.136879e+001
1.857326e+003,5.520247e+001
1.859254e+003,5.633659e+001
1.861183e+003,5.472805e+001
1.863111e+003,5.280705e+001
1.865040e+003,4.989507e+001
1.866968e+003,4.822609e+001
1.868897e+003,4.803261e+001
1.870825e+003,4.901814e+001
1.872754e+003,5.226329e+001
1.874682e+003,5.558144e+001
1.876611e+003,5.693156e+001
1.878539e+003,5.693834e+001
1.880468e+003,5.757284e+001
1.882396e+003,5.894099e+001
1.884324e+003,5.893182e+001
1.886253e+003,5.690132e+001
1.888181e+003,5.484747e+001
1.890110e+003,5.208419e+001
1.892038e+003,5.102796e+001
1.893967e+003,5.527472e+001
1.895895e+003,5.995488e+001
1.897824e+003,5.913667e+001
1.899752e+003,5.470927e+001
1.901681e+003,5.286850e+001
1.903609e+003,5.394188e+001
1.905538e+003,5.433479e+001
1.907466e+003,5.275048e+001
1.909395e+003,5.271648e+001
1.911323e+003,5.720689e+001
1.913251e+003,6.131989e+001
1.915180e+003,6.244417e+001
1.917108e+003,6.162383e+001
1.919037e+003,5.928868e+001
1.920965e+003,5.596124e+001
1.922894e+003,5.493425e+001
1.924822e+003,5.662705e+001
1.926751e+003,5.894894e+001
1.928679e+003,6.404224e+001
1.930608e+003,6.647305e+001
1.932536e+003,6.343891e+001
1.934465e+003,5.958287e+001
1.936393e+003,5.724335e+001
1.938322e+003,5.576824e+001
1.940250e+003,5.417576e+001
1.942178e+003,5.260482e+001
1.944107e+003,5.198952e+001
1.946035e+003,5.213847e+001
1.947964e+003,5.439828e+001
1.949892e+003,6.180819e+001
1.951821e+003,6.534740e+001
1.953749e+003,5.931359e+001
1.955678e+003,5.355592e+001
1.957606e+003,5.317252e+001
1.959535e+003,5.516728e+001
1.961463e+003,5.616708e+001
1.963392e+003,5.677923e+001
1.965320e+003,5.980855e+001
1.967249e+003,6.537704e+001
1.969177e+003,6.701146e+001
1.971105e+003,6.247559e+001
1.973034e+003,5.920353e+001
1.974962e+003,5.961569e+001
1.976891e+003,6.098265e+001
1.978819e+003,6.314037e+001
1.980748e+003,6.474634e+001
1.982676e+003,6.385410e+001
1.984605e+003,6.161795e+001
1.986533e+003,6.104576e+001
1.988462e+003,6.226418e+001
1.990390e+003,6.264436e+001
1.992319e+003,6.062327e+001
1.994247e+003,6.054284e+001
1.996176e+003,6.485564e+001
1.998104e+003,6.771352e+001
2.000032e+003,6.678584e+001
2.001961e+003,6.485668e+001
2.003889e+003,6.300190e+001
2.005818e+003,6.166063e+001
2.007746e+003,6.164431e+001
2.009675e+003,6.276672e+001
2.011603e+003,6.421561e+001
2.013532e+003,6.609229e+001
2.015460e+003,6.666422e+001
2.017389e+003,6.549074e+001
2.019317e+003,6.397058e+001
2.021246e+003,6.225099e+001
2.023174e+003,6.063628e+001
2.025103e+003,5.830539e+001
2.027031e+003,5.705923e+001
2.028959e+003,5.985043e+001
2.030888e+003,6.417974e+001
2.032816e+003,6.465034e+001
2.034745e+003,6.157822e+001
2.036673e+003,6.087903e+001
2.038602e+003,6.460597e+001
2.040530e+003,6.471792e+001
2.042459e+003,5.619532e+001
2.044387e+003,5.159487e+001
2.046316e+003,5.529469e+001
2.048244e+003,6.025367e+001
2.050173e+003,6.465427e+001
2.052101e+003,6.759068e+001
2.054030e+003,6.703627e+001
2.055958e+003,6.477895e+001
2.057886e+003,6.483362e+001
2.059815e+003,6.709954e+001
2.061743e+003,7.143774e+001
2.063672e+003,7.859113e+001
2.065600e+003,8.063555e+001
2.067529e+003,7.398169e+001
2.069457e+003,6.901838e+001
2.071386e+003,7.022244e+001
2.073314e+003,7.190405e+001
2.075243e+003,7.109389e+001
2.077171e+003,6.976617e+001
2.079100e+003,6.971343e+001
2.081028e+003,7.041504e+001
2.082957e+003,7.113239e+001
2.084885e+003,7.178187e+001
2.086813e+003,7.104099e+001
2.088742e+003,6.757758e+001
2.090670e+003,6.684583e+001
2.092599e+003,7.138062e+001
2.094527e+003,7.344456e+001
2.096456e+003,6.901976e+001
2.098384e+003,6.629748e+001
2.100313e+003,7.035441e+001
2.102241e+003,7.471356e+001
2.104170e+003,7.504027e+001
2.106098e+003,7.331725e+001
2.108027e+003,7.083573e+001
2.109955e+003,6.858353e+001
2.111884e+003,7.077657e+001
2.113812e+003,7.739848e+001
2.115740e+003,7.922962e+001
2.117669e+003,7.378832e+001
2.119597e+003,7.001801e+001
2.121526e+003,6.897606e+001
2.123454e+003,6.961609e+001
2.125383e+003,7.376089e+001
2.127311e+003,7.694181e+001
2.129240e+003,7.572624e+001
2.131168e+003,7.378918e+001
2.133097e+003,7.496210e+001
2.135025e+003,7.737828e+001
2.136954e+003,7.779061e+001
2.138882e+003,7.643314e+001
2.140811e+003,7.384196e+001
2.142739e+003,7.006642e+001
2.144667e+003,6.900644e+001
2.146596e+003,7.186697e+001
2.148524e+003,7.327786e+001
2.150453e+003,7.165515e+001
2.152381e+003,6.951682e+001
2.154310e+003,6.567125e+001
2.156238e+003,6.398948e+001
2.158167e+003,6.831824e+001
2.160095e+003,7.380186e+001
2.162024e+003,7.612968e+001
2.163952e+003,7.662000e+001
2.165881e+003,7.774722e+001
2.167809e+003,7.914097e+001
2.169738e+003,7.836370e+001
2.171666e+003,7.534943e+001
2.173594e+003,7.255457e+001
2.175523e+003,6.993579e+001
2.177451e+003,6.856477e+001
2.179380e+003,6.899113e+001
2.181308e+003,6.962970e+001
2.183237e+003,6.990696e+001
2.185165e+003,7.053704e+001
2.187094e+003,7.194910e+001
2.189022e+003,7.373902e+001
2.190951e+003,7.607793e+001
2.192879e+003,7.827090e+001
2.194808e+003,7.936281e+001
2.196736e+003,7.956474e+001
2.198665e+003,7.970135e+001
2.200593e+003,7.970108e+001
2.202521e+003,7.742413e+001
2.204450e+003,7.243214e+001
2.206378e+003,7.113362e+001
2.208307e+003,7.518380e+001
2.210235e+003,7.752445e+001
2.212164e+003,7.551246e+001
2.214092e+003,7.469933e+001
2.216021e+003,7.865649e+001
2.217949e+003,8.194341e+001
2.219878e+003,8.162045e+001
2.221806e+003,8.011559e+001
2.223735e+003,7.867919e+001
2.225663e+003,7.764287e+001
2.227592e+003,7.781604e+001
2.229520e+003,7.863153e+001
2.231448e+003,7.863393e+001
2.233377e+003,7.786082e+001
2.235305e+003,7.632156e+001
2.237234e+003,7.401897e+001
2.239162e+003,7.267619e+001
2.241091e+003,7.255608e+001
2.243019e+003,7.289641e+001
2.244948e+003,7.387714e+001
2.246876e+003,7.454687e+001
2.248805e+003,7.411076e+001
2.250733e+003,7.398384e+001
2.252662e+003,7.553119e+001
2.254590e+003,7.649425e+001
2.256519e+003,7.480270e+001
2.258447e+003,7.251119e+001
2.260375e+003,7.141052e+001
2.262304e+003,7.127250e+001
2.264232e+003,7.173299e+001
2.266161e+003,7.279955e+001
2.268089e+003,7.499822e+001
2.270018e+003,7.801256e+001
2.271946e+003,7.907918e+001
2.273875e+003,7.786120e+001
2.275803e+003,7.644508e+001
2.277732e+003,7.406931e+001
2.279660e+003,7.368976e+001
2.281589e+003,7.838256e+001
2.283517e+003,8.056997e+001
2.285446e+003,7.684811e+001
2.287374e+003,7.359942e+001
2.289302e+003,7.220209e+001
2.291231e+003,7.265201e+001
2.293159e+003,7.679111e+001
2.295088e+003,8.083150e+001
2.297016e+003,8.122544e+001
2.298945e+003,7.978040e+001
2.300873e+003,7.820270e+001
2.302802e+003,7.699069e+001
2.304730e+003,7.839297e+001
2.306659e+003,8.167374e+001
2.308587e+003,7.996601e+001
2.310516e+003,7.199445e+001
2.312444e+003,7.055671e+001
2.314373e+003,7.733338e+001
2.316301e+003,8.036230e+001
2.318229e+003,7.751794e+001
2.320158e+003,7.596906e+001
2.322086e+003,7.800914e+001
2.324015e+003,7.916093e+001
2.325943e+003,7.693795e+001
2.327872e+003,7.514700e+001
2.329800e+003,7.443763e+001
2.331729e+003,7.553149e+001
2.333657e+003,8.169522e+001
2.335586e+003,8.678224e+001
2.337514e+003,8.322926e+001
2.339443e+003,7.738943e+001
2.341371e+003,7.761359e+001
2.343300e+003,8.120017e+001
2.345228e+003,8.333166e+001
2.347156e+003,8.429388e+001
2.349085e+003,8.521505e+001
2.351013e+003,8.602985e+001
2.352942e+003,8.488492e+001
2.354870e+003,8.100713e+001
2.356799e+003,8.046146e+001
2.358727e+003,8.494778e+001
2.360656e+003,8.783375e+001
2.362584e+003,8.830965e+001
2.364513e+003,8.900166e+001
2.366441e+003,9.054486e+001
2.368370e+003,9.160760e+001
2.370298e+003,9.207817e+001
2.372227e+003,9.145741e+001
2.374155e+003,8.854702e+001
2.376083e+003,8.583820e+001
2.378012e+003,8.469955e+001
2.379940e+003,8.412325e+001
2.381869e+003,8.270879e+001
2.383797e+003,8.216702e+001
2.385726e+003,8.581715e+001
2.387654e+003,9.021866e+001
2.389583e+003,9.054832e+001
2.391511e+003,8.795671e+001
2.393440e+003,8.273995e+001
2.395368e+003,7.679019e+001
2.397297e+003,7.779750e+001
2.399225e+003,8.506582e+001
2.401154e+003,8.895248e+001
2.403082e+003,8.893164e+001
2.405010e+003,8.951404e+001
2.406939e+003,9.086723e+001
2.408867e+003,9.206141e+001
2.410796e+003,9.314891e+001
2.412724e+003,9.359194e+001
2.414653e+003,9.307635e+001
2.416581e+003,9.274981e+001
2.418510e+003,9.313103e+001
2.420438e+003,9.315759e+001
2.422367e+003,9.160371e+001
2.424295e+003,9.095498e+001
2.426224e+003,9.323623e+001
2.428152e+003,9.497625e+001
2.430081e+003,9.358374e+001
2.432009e+003,9.254177e+001
2.433938e+003,9.485772e+001
2.435866e+003,9.725155e+001
2.437794e+003,9.782520e+001
2.439723e+003,9.642054e+001
2.441651e+003,9.076412e+001
2.443580e+003,8.449351e+001
2.445508e+003,8.342699e+001
2.447437e+003,8.593742e+001
2.449365e+003,8.986374e+001
2.451294e+003,9.396913e+001
2.453222e+003,9.222240e+001
2.455151e+003,8.646637e+001
2.457079e+003,8.589383e+001
2.459008e+003,9.020098e+001
2.460936e+003,9.336444e+001
2.462865e+003,9.565264e+001
2.464793e+003,9.193340e+001
2.466721e+003,7.712199e+001
2.468650e+003,7.364861e+001
2.470578e+003,8.544936e+001
2.472507e+003,9.224144e+001
2.474435e+003,9.081759e+001
2.476364e+003,8.999554e+001
2.478292e+003,9.237135e+001
2.480221e+003,9.261517e+001
2.482149e+003,8.588769e+001
2.484078e+003,8.266963e+001
2.486006e+003,8.818803e+001
2.487935e+003,9.323746e+001
2.489863e+003,9.588445e+001
2.491792e+003,9.619770e+001
2.493720e+003,9.240131e+001
2.495648e+003,8.898858e+001
2.497577e+003,8.818217e+001
2.499505e+003,8.884847e+001
2.501434e+003,9.155093e+001
2.503362e+003,9.393729e+001
2.505291e+003,9.391724e+001
2.507219e+003,9.278610e+001
2.509148e+003,9.143214e+001
2.511076e+003,9.011662e+001
2.513005e+003,8.832536e+001
2.514933e+003,8.738737e+001
2.516862e+003,8.967384e+001
2.518790e+003,9.385291e+001
2.520719e+003,9.875210e+001
2.522647e+003,1.030780e+002
2.524575e+003,1.021535e+002
2.526504e+003,9.771896e+001
2.528432e+003,9.779015e+001
2.530361e+003,1.011069e+002
2.532289e+003,9.922889e+001
2.534218e+003,9.343444e+001
2.536146e+003,9.335257e+001
2.538075e+003,9.914700e+001
2.540003e+003,1.024723e+002
2.541932e+003,1.032237e+002
2.543860e+003,1.013988e+002
2.545789e+003,9.642226e+001
2.547717e+003,9.278527e+001
2.549646e+003,9.064871e+001
2.551574e+003,8.976394e+001
2.553502e+003,9.030890e+001
2.555431e+003,9.057243e+001
2.557359e+003,9.010104e+001
2.559288e+003,8.989076e+001
2.561216e+003,8.836015e+001
2.563145e+003,9.071900e+001
2.565073e+003,9.948757e+001
2.567002e+003,1.059010e+002
2.568930e+003,1.084924e+002
2.570859e+003,1.085511e+002
2.572787e+003,1.045078e+002
2.574716e+003,1.022050e+002
2.576644e+003,1.056162e+002
2.578573e+003,1.070953e+002
2.580501e+003,1.016401e+002
2.582429e+003,9.892197e+001
2.584358e+003,1.041294e+002
2.586287e+003,1.072778e+002
2.588215e+003,1.038798e+002
2.590144e+003,9.885985e+001
2.592072e+003,9.241807e+001
2.594000e+003,8.797430e+001
2.595929e+003,8.679767e+001
2.597857e+003,8.861729e+001
2.599786e+003,9.763308e+001
2.601714e+003,1.037318e+002
2.603643e+003,9.864046e+001
2.605571e+003,9.272694e+001
2.607500e+003,9.311423e+001
2.609428e+003,9.502035e+001
2.611357e+003,9.548996e+001
2.613285e+003,9.534786e+001
2.615214e+003,9.530713e+001
2.617142e+003,9.492043e+001
2.619071e+003,9.360749e+001
2.620999e+003,9.195585e+001
2.622927e+003,8.960670e+001
2.624856e+003,8.808661e+001
2.626784e+003,8.931834e+001
2.628713e+003,9.184878e+001
2.630641e+003,9.546362e+001
2.632570e+003,9.809971e+001
2.634498e+003,9.663158e+001
2.636427e+003,9.325391e+001
2.638355e+003,8.846315e+001
2.640284e+003,8.540479e+001
2.642212e+003,8.993710e+001
2.644141e+003,9.745869e+001
2.646069e+003,1.029090e+002
2.647998e+003,1.052712e+002
2.649926e+003,1.006876e+002
2.651854e+003,9.346675e+001
2.653783e+003,9.046751e+001
2.655711e+003,9.007558e+001
2.657640e+003,8.998879e+001
2.659568e+003,9.049477e+001
2.661497e+003,9.219704e+001
2.663425e+003,9.483699e+001
2.665354e+003,9.903153e+001
2.667282e+003,1.030849e+002
2.669211e+003,1.026139e+002
2.671139e+003,9.968942e+001
2.673068e+003,9.797852e+001
2.674996e+003,9.717731e+001
2.676925e+003,9.711205e+001
2.678853e+003,9.720213e+001
2.680781e+003,9.634171e+001
2.682710e+003,9.441084e+001
2.684638e+003,8.870696e+001
2.686567e+003,8.303633e+001
2.688495e+003,8.842793e+001
2.690424e+003,9.852217e+001
2.692352e+003,9.555276e+001
2.694281e+003,8.625805e+001
2.696209e+003,8.961842e+001
2.698138e+003,9.990076e+001
2.700066e+003,1.036127e+002
2.701995e+003,1.019193e+002
2.703923e+003,9.438724e+001
2.705852e+003,8.541458e+001
2.707780e+003,8.708329e+001
2.709708e+003,9.512807e+001
2.711637e+003,9.918880e+001
2.713565e+003,1.008874e+002
2.715494e+003,1.048165e+002
2.717422e+003,1.089655e+002
2.719351e+003,1.098469e+002
2.721279e+003,1.076263e+002
2.723208e+003,1.003836e+002
2.725136e+003,9.159451e+001
2.727065e+003,8.847745e+001
2.728993e+003,8.959425e+001
2.730922e+003,9.409663e+001
2.732850e+003,9.938802e+001
2.734779e+003,1.008092e+002
2.736707e+003,9.988275e+001
2.738635e+003,9.800861e+001
2.740564e+003,9.691735e+001
2.742492e+003,1.014256e+002
2.744421e+003,1.074458e+002
2.746349e+003,1.094934e+002
2.748278e+003,1.084346e+002
2.750206e+003,1.045458e+002
2.752135e+003,9.910439e+001
2.754063e+003,9.199981e+001
2.755992e+003,8.626050e+001
2.757920e+003,8.622983e+001
2.759849e+003,8.973866e+001
2.761777e+003,9.801424e+001
2.763706e+003,1.046678e+002
2.765634e+003,9.875942e+001
2.767563e+003,9.137470e+001
2.769491e+003,9.569391e+001
2.771419e+003,1.032496e+002
2.773348e+003,1.083724e+002
2.775276e+003,1.102575e+002
2.777205e+003,1.052311e+002
2.779133e+003,1.001223e+002
2.781062e+003,1.014565e+002
2.782990e+003,1.042588e+002
2.784919e+003,1.051837e+002
2.786847e+003,1.054834e+002
2.788776e+003,1.073422e+002
2.790704e+003,1.068949e+002
2.792633e+003,9.850648e+001
2.794561e+003,9.177133e+001
2.796490e+003,9.299057e+001
2.798418e+003,9.627572e+001
2.800346e+003,1.004060e+002
2.802275e+003,1.035406e+002
2.804203e+003,1.033312e+002
2.806132e+003,1.041737e+002
2.808060e+003,1.100968e+002
2.809989e+003,1.134267e+002
2.811917e+003,1.106702e+002
2.813846e+003,1.077195e+002
2.815774e+003,1.057001e+002
2.817703e+003,1.052438e+002
2.819631e+003,1.090675e+002
2.821560e+003,1.097827e+002
2.823488e+003,1.032055e+002
2.825417e+003,1.010128e+002
2.827345e+003,1.056373e+002
2.829273e+003,1.113584e+002
2.831202e+003,1.174439e+002
2.833130e+003,1.235158e+002
2.835059e+003,1.309284e+002
2.836987e+003,1.337987e+002
2.838916e+003,1.307388e+002
2.840844e+003,1.318215e+002
2.842773e+003,1.381338e+002
2.844701e+003,1.463517e+002
2.846630e+003,1.572723e+002
2.848558e+003,1.616833e+002
2.850487e+003,1.591931e+002
2.852415e+003,1.615290e+002
2.854344e+003,1.680582e+002
2.856272e+003,1.705161e+002
2.858200e+003,1.692314e+002
2.860129e+003,1.702686e+002
2.862057e+003,1.724967e+002
2.863986e+003,1.688864e+002
2.865914e+003,1.609761e+002
2.867843e+003,1.530747e+002
2.869771e+003,1.454072e+002
2.871700e+003,1.368263e+002
2.873628e+003,1.298620e+002
2.875557e+003,1.323170e+002
2.877485e+003,1.371892e+002
2.879414e+003,1.309341e+002
2.881342e+003,1.236783e+002
2.883271e+003,1.274992e+002
2.885199e+003,1.352334e+002
2.887127e+003,1.415507e+002
2.889056e+003,1.461635e+002
2.890984e+003,1.473533e+002
2.892913e+003,1.487679e+002
2.894841e+003,1.507240e+002
2.896770e+003,1.564014e+002
2.898698e+003,1.701093e+002
2.900627e+003,1.836384e+002
2.902555e+003,1.908044e+002
2.904484e+003,2.036204e+002
2.906412e+003,2.252239e+002
2.908341e+003,2.544428e+002
2.910269e+003,2.900342e+002
2.912198e+003,3.359389e+002
2.914126e+003,3.941861e+002
2.916054e+003,4.587546e+002
2.917983e+003,5.327467e+002
2.919911e+003,5.886318e+002
2.921840e+003,6.296808e+002
2.923768e+003,6.111354e+002
2.925697e+003,5.252088e+002
2.927625e+003,4.556572e+002
2.929554e+003,4.048118e+002
2.931482e+003,3.853668e+002
2.933411e+003,3.922725e+002
2.935339e+003,3.888982e+002
2.937268e+003,3.772769e+002
2.939196e+003,3.616693e+002
2.941125e+003,3.479713e+002
2.943053e+003,3.563829e+002
2.944981e+003,3.709618e+002
2.946910e+003,3.673636e+002
2.948838e+003,3.524369e+002
2.950767e+003,3.270724e+002
2.952695e+003,3.047093e+002
2.954624e+003,2.896156e+002
2.956552e+003,2.916841e+002
2.958481e+003,3.300923e+002
2.960409e+003,3.703299e+002
2.962338e+003,4.116422e+002
2.964266e+003,4.175676e+002
2.966195e+003,3.579502e+002
2.968123e+003,3.014089e+002
2.970052e+003,2.638174e+002
2.971980e+003,2.475631e+002
2.973908e+003,2.592388e+002
2.975837e+003,2.674865e+002
2.977765e+003,2.690013e+002
2.979694e+003,2.634562e+002
2.981622e+003,2.492679e+002
2.983551e+003,2.355244e+002
2.985479e+003,2.222056e+002
2.987408e+003,2.039534e+002
2.989336e+003,1.834011e+002
2.991265e+003,1.752785e+002
2.993193e+003,1.769566e+002
2.995122e+003,1.807652e+002
2.997050e+003,1.870204e+002
2.998979e+003,1.993372e+002
3.000907e+003,2.115455e+002
3.002835e+003,2.166489e+002
3.004764e+003,2.167077e+002
3.006692e+003,2.130233e+002
3.008621e+003,2.057035e+002
3.010549e+003,1.883391e+002
3.012478e+003,1.790069e+002
3.014406e+003,1.910811e+002
3.016335e+003,2.060321e+002
3.018263e+003,2.159058e+002
3.020192e+003,2.326650e+002
3.022120e+003,2.608790e+002
3.024049e+003,2.826804e+002
3.025977e+003,2.914500e+002
3.027906e+003,3.080542e+002
3.029834e+003,3.341429e+002
3.031762e+003,3.636224e+002
3.033691e+003,3.947408e+002
3.035619e+003,4.117602e+002
3.037548e+003,4.165087e+002
3.039476e+003,4.143306e+002
3.041405e+003,4.094887e+002
3.043333e+003,3.954113e+002
3.045262e+003,4.034118e+002
3.047190e+003,4.567211e+002
3.049119e+003,5.747675e+002
3.051047e+003,8.356387e+002
3.052976e+003,1.085715e+003
3.054904e+003,1.247946e+003
3.056833e+003,1.334697e+003
3.058761e+003,1.318215e+003
3.060689e+003,1.290637e+003
3.062618e+003,1.299676e+003
3.064546e+003,1.243197e+003
3.066475e+003,1.103732e+003
3.068403e+003,9.310031e+002
3.070332e+003,7.161782e+002
3.072260e+003,5.470567e+002
3.074189e+003,4.234382e+002
3.076117e+003,3.367228e+002
3.078046e+003,2.826356e+002
3.079974e+003,2.455947e+002
3.081903e+003,2.215118e+002
3.083831e+003,2.054210e+002
3.085760e+003,1.937940e+002
3.087688e+003,1.811664e+002
3.089616e+003,1.715553e+002
3.091545e+003,1.717846e+002
3.093473e+003,1.709983e+002
3.095402e+003,1.594444e+002
3.097330e+003,1.517982e+002
3.099259e+003,1.545188e+002
3.101187e+003,1.550513e+002
3.103116e+003,1.477208e+002
3.105044e+003,1.435029e+002
3.106973e+003,1.432894e+002
3.108901e+003,1.378010e+002
3.110830e+003,1.273854e+002
3.112758e+003,1.287299e+002
3.114687e+003,1.381200e+002
3.116615e+003,1.357012e+002
3.118543e+003,1.271273e+002
3.120472e+003,1.216569e+002
3.122400e+003,1.199987e+002
3.124329e+003,1.275682e+002
3.126257e+003,1.331488e+002
3.128186e+003,1.262368e+002
3.130114e+003,1.192298e+002
3.132043e+003,1.191366e+002
3.133971e+003,1.176380e+002
3.135900e+003,1.103098e+002
3.137828e+003,1.083248e+002
3.139757e+003,1.135358e+002
3.141685e+003,1.148649e+002
3.143614e+003,1.108446e+002
3.145542e+003,1.114410e+002
3.147470e+003,1.156277e+002
3.149399e+003,1.170153e+002
3.151327e+003,1.162754e+002
3.153256e+003,1.128752e+002
3.155184e+003,1.104596e+002
3.157113e+003,1.142282e+002
3.159041e+003,1.203639e+002
3.160970e+003,1.286042e+002
3.162898e+003,1.341289e+002
3.164827e+003,1.344223e+002
3.166755e+003,1.319070e+002
3.168684e+003,1.268749e+002
3.170612e+003,1.200809e+002
3.172541e+003,1.111810e+002
3.174469e+003,1.045750e+002
3.176397e+003,1.003186e+002
3.178326e+003,9.774834e+001
3.180254e+003,9.625161e+001
3.182183e+003,9.205086e+001
3.184111e+003,8.954431e+001
3.186040e+003,9.905563e+001
3.187968e+003,1.097513e+002
3.189897e+003,1.136289e+002
3.191825e+003,1.139190e+002
3.193754e+003,1.098903e+002
3.195682e+003,1.072522e+002
3.197611e+003,1.073208e+002
3.199539e+003,1.087520e+002
3.201468e+003,1.119852e+002
3.203396e+003,1.108773e+002
3.205324e+003,1.052818e+002
3.207253e+003,1.022599e+002
3.209181e+003,1.001927e+002
3.211110e+003,9.233636e+001
3.213038e+003,8.409667e+001
3.214967e+003,8.568093e+001
3.216895e+003,8.865290e+001
3.218824e+003,8.607321e+001
3.220752e+003,8.312418e+001
3.222681e+003,8.095352e+001
3.224609e+003,8.234541e+001
3.226538e+003,8.957021e+001
3.228466e+003,8.988860e+001
3.230395e+003,8.062402e+001
3.232323e+003,7.909115e+001
3.234251e+003,8.453292e+001
3.236180e+003,8.676119e+001
3.238108e+003,8.594700e+001
3.240037e+003,8.017071e+001
3.241965e+003,7.515683e+001
3.243894e+003,8.067725e+001
3.245822e+003,8.484196e+001
3.247751e+003,7.862733e+001
3.249679e+003,7.470192e+001
3.251608e+003,8.061605e+001
3.253536e+003,8.267255e+001
3.255465e+003,7.944302e+001
3.257393e+003,7.764321e+001
3.259322e+003,7.766647e+001
3.261250e+003,7.679581e+001
3.263178e+003,7.572121e+001
3.265107e+003,7.697639e+001
3.267035e+003,7.897690e+001
3.268964e+003,8.119837e+001
3.270892e+003,8.121161e+001
3.272821e+003,7.461217e+001
3.274749e+003,7.115858e+001
3.276678e+003,7.570399e+001
3.278606e+003,7.871941e+001
3.280535e+003,7.863778e+001
3.282463e+003,7.797643e+001
3.284392e+003,7.698689e+001
3.286320e+003,7.760352e+001
3.288249e+003,7.876316e+001
3.290177e+003,7.732412e+001
3.292105e+003,7.505206e+001
3.294034e+003,7.230737e+001
3.295962e+003,7.210125e+001
3.297891e+003,7.896101e+001
3.299819e+003,8.418468e+001
3.301748e+003,8.678127e+001
3.303676e+003,8.161958e+001
3.305605e+003,6.440104e+001
3.307533e+003,6.612006e+001
3.309462e+003,8.240191e+001
3.311390e+003,8.699650e+001
3.313319e+003,8.425678e+001
3.315247e+003,7.783623e+001
3.317176e+003,7.391599e+001
3.319104e+003,8.086131e+001
3.321032e+003,8.618605e+001
3.322961e+003,8.261037e+001
3.324889e+003,7.988673e+001
3.326818e+003,7.965501e+001
3.328746e+003,7.696777e+001
3.330675e+003,7.198057e+001
3.332603e+003,7.287219e+001
3.334532e+003,7.763407e+001
3.336460e+003,8.190495e+001
3.338389e+003,8.428918e+001
3.340317e+003,8.345146e+001
3.342246e+003,7.995956e+001
3.344174e+003,7.235761e+001
3.346103e+003,6.634769e+001
3.348031e+003,6.279641e+001
3.349959e+003,6.337325e+001
3.351888e+003,6.836971e+001
3.353816e+003,7.129337e+001
3.355745e+003,7.261039e+001
3.357673e+003,7.389474e+001
3.359602e+003,7.470106e+001
3.361530e+003,7.352798e+001
3.363459e+003,7.297526e+001
3.365387e+003,7.598957e+001
3.367316e+003,7.684402e+001
3.369244e+003,7.270812e+001
3.371173e+003,7.210430e+001
3.373101e+003,7.536494e+001
3.375030e+003,7.519133e+001
3.376958e+003,7.264819e+001
3.378886e+003,7.229298e+001
3.380815e+003,7.213457e+001
3.382743e+003,6.796490e+001
3.384672e+003,6.610377e+001
3.386600e+003,7.354990e+001
3.388529e+003,7.734657e+001
3.390457e+003,7.427071e+001
3.392386e+003,7.116898e+001
3.394314e+003,6.861061e+001
3.396243e+003,6.854389e+001
3.398171e+003,7.025775e+001
3.400100e+003,7.287225e+001
3.402028e+003,7.474783e+001
3.403957e+003,7.339458e+001
3.405885e+003,7.176156e+001
3.407813e+003,7.083782e+001
3.409742e+003,7.068248e+001
3.411670e+003,7.153246e+001
3.413599e+003,7.109161e+001
3.415527e+003,6.990196e+001
3.417456e+003,7.261234e+001
3.419384e+003,7.662601e+001
3.421313e+003,7.779325e+001
3.423241e+003,7.633466e+001
3.425170e+003,6.989950e+001
3.427098e+003,6.565187e+001
3.429027e+003,6.548808e+001
3.430955e+003,6.888260e+001
3.432884e+003,7.589618e+001
3.434812e+003,7.970285e+001
3.436740e+003,8.014594e+001
3.438669e+003,7.448541e+001
3.440597e+003,6.845225e+001
3.442526e+003,6.829160e+001
3.444454e+003,7.033150e+001
3.446383e+003,7.404753e+001
3.448311e+003,7.536941e+001
3.450240e+003,7.233212e+001
3.452168e+003,7.214059e+001
3.454097e+003,7.435281e+001
3.456025e+003,7.682873e+001
3.457954e+003,7.782365e+001
3.459882e+003,7.104178e+001
3.461811e+003,6.776392e+001
3.463739e+003,7.787763e+001
3.465667e+003,8.326881e+001
3.467596e+003,7.509356e+001
3.469524e+003,7.055518e+001
3.471453e+003,6.954204e+001
3.473381e+003,6.991743e+001
3.475310e+003,7.044088e+001
3.477238e+003,6.835406e+001
3.479167e+003,6.588470e+001
3.481095e+003,6.333699e+001
3.483024e+003,6.386934e+001
3.484952e+003,7.005712e+001
3.486881e+003,7.234359e+001
3.488809e+003,7.032135e+001
3.490738e+003,6.921890e+001
3.492666e+003,6.967271e+001
3.494594e+003,7.488727e+001
3.496523e+003,7.978847e+001
3.498451e+003,8.206386e+001
3.500380e+003,7.850126e+001
3.502308e+003,6.647775e+001
3.504237e+003,5.992530e+001
3.506165e+003,6.068343e+001
3.508094e+003,6.512566e+001
3.510022e+003,7.215859e+001
3.511951e+003,8.211167e+001
3.513879e+003,8.861127e+001
3.515808e+003,8.326615e+001
3.517736e+003,7.778044e+001
3.519665e+003,7.472572e+001
3.521593e+003,7.550158e+001
3.523521e+003,8.005798e+001
3.525450e+003,7.969334e+001
3.527378e+003,7.605886e+001
3.529307e+003,7.019199e+001
3.531235e+003,6.702818e+001
3.533164e+003,7.365295e+001
3.535092e+003,7.536046e+001
3.537021e+003,6.387049e+001
3.538949e+003,6.303260e+001
3.540878e+003,7.174437e+001
3.542806e+003,7.326926e+001
3.544735e+003,7.118304e+001
3.546663e+003,7.040696e+001
3.548592e+003,7.044619e+001
3.550520e+003,7.079425e+001
3.552448e+003,7.253469e+001
3.554377e+003,7.675551e+001
3.556305e+003,7.687215e+001
3.558234e+003,7.389723e+001
3.560162e+003,7.283372e+001
3.562091e+003,7.283082e+001
3.564019e+003,7.271507e+001
3.565948e+003,7.330149e+001
3.567876e+003,7.557299e+001
3.569805e+003,7.762135e+001
3.571733e+003,7.926143e+001
3.573662e+003,7.603118e+001
3.575590e+003,7.091573e+001
3.577519e+003,7.308380e+001
3.579447e+003,7.610941e+001
3.581376e+003,7.464334e+001
3.583304e+003,7.242550e+001
3.585233e+003,6.970720e+001
3.587161e+003,7.119235e+001
3.589090e+003,7.622077e+001
3.591018e+003,7.620922e+001
3.592947e+003,7.389941e+001
3.594875e+003,7.433916e+001
3.596803e+003,7.318194e+001
3.598732e+003,6.439375e+001
3.600660e+003,6.272424e+001
3.602589e+003,6.968385e+001
3.604517e+003,7.734892e+001
3.606446e+003,8.051461e+001
3.608374e+003,5.254990e+001
3.610303e+003,2.884734e+001
3.612231e+003,4.633585e+001
3.614160e+003,6.195083e+001
3.616088e+003,6.569578e+001
3.618017e+003,6.577645e+001
3.619945e+003,6.404420e+001
3.621874e+003,6.817851e+001
3.623802e+003,7.444559e+001
3.625730e+003,8.123772e+001
3.627659e+003,8.163374e+001
3.629587e+003,6.876058e+001
3.631516e+003,6.544079e+001
3.633444e+003,7.452001e+001
3.635373e+003,7.426354e+001
3.637301e+003,6.894186e+001
3.639230e+003,6.551501e+001
3.641158e+003,6.462907e+001
3.643087e+003,6.877591e+001
3.645015e+003,7.161005e+001
3.646944e+003,7.228962e+001
3.648872e+003,6.934991e+001
3.650801e+003,6.468360e+001
3.652729e+003,6.377345e+001
3.654657e+003,6.601801e+001
3.656586e+003,7.606963e+001
3.658514e+003,7.729063e+001
3.660443e+003,6.450149e+001
3.662371e+003,6.387806e+001
3.664300e+003,7.317921e+001
3.666228e+003,7.495884e+001
3.668157e+003,7.386436e+001
3.670085e+003,7.432431e+001
3.672014e+003,7.414586e+001
3.673942e+003,7.267831e+001
3.675871e+003,7.073277e+001
3.677799e+003,6.858736e+001
3.679728e+003,6.741541e+001
3.681656e+003,6.734426e+001
3.683584e+003,6.885661e+001
3.685513e+003,7.083179e+001
3.687441e+003,7.323334e+001
3.689370e+003,7.300948e+001
3.691298e+003,7.057575e+001
3.693227e+003,7.736729e+001
3.695155e+003,8.492258e+001
3.697084e+003,8.145264e+001
3.699012e+003,7.545519e+001
3.700941e+003,6.914613e+001
3.702869e+003,6.793241e+001
3.704798e+003,7.204046e+001
3.706726e+003,7.496590e+001
3.708655e+003,7.675875e+001
3.710583e+003,7.819678e+001
3.712511e+003,7.733764e+001
3.714440e+003,7.227500e+001
3.716368e+003,7.011385e+001
3.718297e+003,7.120675e+001
3.720225e+003,6.844619e+001
3.722154e+003,6.466180e+001
3.724082e+003,6.384127e+001
3.726011e+003,6.356754e+001
3.727939e+003,6.221083e+001
3.729868e+003,6.466294e+001
3.731796e+003,7.076113e+001
3.733725e+003,7.400851e+001
3.735653e+003,7.446587e+001
3.737582e+003,6.986038e+001
3.739510e+003,6.811124e+001
3.741438e+003,7.339991e+001
3.743367e+003,7.617149e+001
3.745295e+003,7.600584e+001
3.747224e+003,7.542253e+001
3.749152e+003,7.495258e+001
3.751081e+003,7.622340e+001
3.753009e+003,7.525505e+001
3.754938e+003,6.976115e+001
3.756866e+003,6.942342e+001
3.758795e+003,7.287009e+001
3.760723e+003,7.044240e+001
3.762652e+003,6.726902e+001
3.764580e+003,6.766081e+001
3.766509e+003,6.990938e+001
3.768437e+003,7.408392e+001
3.770365e+003,7.423973e+001
3.772294e+003,7.157705e+001
3.774222e+003,6.931839e+001
3.776151e+003,6.874781e+001
3.778079e+003,7.111130e+001
3.780008e+003,7.491454e+001
3.781936e+003,8.005994e+001
3.783865e+003,7.436304e+001
3.785793e+003,6.530670e+001
3.787722e+003,7.091997e+001
3.789650e+003,7.540353e+001
3.791579e+003,6.914992e+001
3.793507e+003,6.521755e+001
3.795436e+003,6.457777e+001
3.797364e+003,6.384367e+001
3.799292e+003,6.377898e+001
3.801221e+003,6.661532e+001
3.803149e+003,6.847091e+001
3.805078e+003,6.743982e+001
3.807006e+003,6.864462e+001
3.808935e+003,7.101469e+001
3.810863e+003,6.778986e+001
3.812792e+003,6.465611e+001
3.814720e+003,6.766856e+001
3.816649e+003,6.946326e+001
3.818577e+003,6.811857e+001
3.820506e+003,6.829494e+001
3.822434e+003,6.873288e+001
3.824363e+003,6.514682e+001
3.826291e+003,6.434969e+001
3.828219e+003,7.164792e+001
3.830148e+003,7.229032e+001
3.832076e+003,6.543970e+001
3.834005e+003,6.043579e+001
3.835933e+003,6.024233e+001
3.837862e+003,7.386496e+001
3.839790e+003,7.913365e+001
3.841719e+003,6.993865e+001
3.843647e+003,6.902884e+001
3.845576e+003,7.398283e+001
3.847504e+003,7.402509e+001
3.849433e+003,7.406815e+001
3.851361e+003,7.945035e+001
3.853290e+003,7.986937e+001
3.855218e+003,7.476714e+001
3.857146e+003,6.829376e+001
3.859075e+003,6.323440e+001
3.861003e+003,6.491440e+001
3.862932e+003,6.487349e+001
3.864860e+003,5.831113e+001
3.866789e+003,6.092819e+001
3.868717e+003,6.860420e+001
3.870646e+003,6.717673e+001
3.872574e+003,6.389766e+001
3.874503e+003,6.234135e+001
3.876431e+003,6.446584e+001
3.878360e+003,6.987743e+001
3.880288e+003,6.973502e+001
3.882217e+003,6.727665e+001
3.884145e+003,6.528514e+001
3.886073e+003,6.508229e+001
3.888002e+003,6.736007e+001
3.889930e+003,7.003070e+001
3.891859e+003,7.248989e+001
3.893787e+003,7.284916e+001
3.895716e+003,7.374075e+001
3.897644e+003,7.731313e+001
3.899573e+003,7.727157e+001
3.901501e+003,7.380589e+001
3.903430e+003,7.581074e+001
3.905358e+003,7.735035e+001
3.907287e+003,7.070440e+001
3.909215e+003,6.621568e+001
3.911144e+003,6.568959e+001
3.913072e+003,7.095424e+001
3.915000e+003,7.658394e+001
3.916929e+003,7.122543e+001
3.918857e+003,6.699934e+001
3.920786e+003,7.068259e+001
3.922714e+003,6.555138e+001
3.924643e+003,5.622541e+001
3.926571e+003,6.087119e+001
3.928500e+003,6.649524e+001
3.930428e+003,6.462725e+001
3.932357e+003,6.358073e+001
3.934285e+003,6.456257e+001
3.936214e+003,7.301575e+001
3.938142e+003,8.010148e+001
3.940071e+003,7.472182e+001
3.941999e+003,6.992069e+001
3.943927e+003,6.833540e+001
3.945856e+003,6.910027e+001
3.947784e+003,6.967318e+001
3.949713e+003,6.444824e+001
3.951641e+003,6.241746e+001
3.953570e+003,6.634599e+001
3.955498e+003,6.786018e+001
3.957427e+003,6.771227e+001
3.959355e+003,6.941429e+001
3.961284e+003,7.028604e+001
3.963212e+003,6.868282e+001
3.965141e+003,6.557529e+001
3.967069e+003,6.268856e+001
3.968998e+003,6.832971e+001
3.970926e+003,7.416846e+001
3.972854e+003,7.493217e+001
3.974783e+003,7.188180e+001
3.976711e+003,6.642384e+001
3.978640e+003,6.838852e+001
3.980568e+003,7.021200e+001
3.982497e+003,6.281441e+001
3.984425e+003,5.944772e+001
3.986354e+003,6.278365e+001
3.988282e+003,6.293142e+001
3.990211e+003,6.298594e+001
3.992139e+003,6.844977e+001
3.994068e+003,7.112843e+001
3.995996e+003,6.919243e+001
3.997925e+003,6.902618e+001
3.999853e+003,6.918642e+001
4.001781e+003,6.608104e+001
4.003710e+003,6.432483e+001
4.005638e+003,6.550409e+001
4.007567e+003,6.522255e+001
4.009495e+003,6.432179e+001
4.011424e+003,6.524876e+001
4.013352e+003,6.605000e+001
4.015281e+003,6.434035e+001
4.017209e+003,7.010242e+001
4.019138e+003,7.765140e+001
4.021066e+003,7.057109e+001
4.022995e+003,6.389413e+001
4.024923e+003,6.446954e+001
4.026852e+003,6.576997e+001
4.028780e+003,6.706123e+001
4.030708e+003,6.897269e+001
4.032637e+003,6.878784e+001
4.034565e+003,6.410650e+001
4.036494e+003,6.145056e+001
4.038422e+003,6.120935e+001
4.040351e+003,6.396400e+001
4.042279e+003,6.608118e+001
4.044208e+003,6.404666e+001
4.046136e+003,6.469593e+001
4.048065e+003,6.711217e+001
4.049993e+003,6.536823e+001
4.051922e+003,6.373182e+001
4.053850e+003,6.501332e+001
4.055779e+003,6.594821e+001
4.057707e+003,6.638777e+001
4.059635e+003,6.747310e+001
4.061564e+003,6.861586e+001
4.063492e+003,6.962040e+001
4.065421e+003,6.971607e+001
4.067349e+003,6.874834e+001
4.069278e+003,6.536900e+001
4.071206e+003,6.239241e+001
4.073135e+003,6.171160e+001
4.075063e+003,6.352058e+001
4.076992e+003,6.641414e+001
4.078920e+003,6.189254e+001
4.080849e+003,5.925555e+001
4.082777e+003,6.672208e+001
4.084706e+003,6.869189e+001
4.086634e+003,6.492281e+001
4.088563e+003,5.715594e+001
4.090491e+003,5.217127e+001
4.092419e+003,5.385995e+001
4.094348e+003,5.859760e+001
4.096276e+003,6.440608e+001
4.098205e+003,6.503387e+001
4.100133e+003,6.468659e+001
4.102062e+003,6.532508e+001
4.103990e+003,6.809291e+001
4.105919e+003,7.051173e+001
4.107847e+003,6.122594e+001
4.109776e+003,5.405108e+001
4.111704e+003,5.793452e+001
4.113633e+003,6.127392e+001
4.115561e+003,6.422309e+001
4.117490e+003,6.911579e+001
4.119418e+003,7.074521e+001
4.121347e+003,6.674540e+001
4.123275e+003,6.418712e+001
4.125204e+003,6.290863e+001
4.127132e+003,6.122250e+001
4.129061e+003,6.204186e+001
4.130989e+003,6.619691e+001
4.132917e+003,6.001473e+001
4.134846e+003,5.385658e+001
4.136774e+003,7.014114e+001
4.138703e+003,7.513178e+001
4.140631e+003,6.013121e+001
4.142560e+003,5.593288e+001
4.144488e+003,5.817497e+001
4.146417e+003,6.562874e+001
4.148345e+003,6.532828e+001
4.150273e+003,5.559201e+001
4.152202e+003,4.857574e+001
4.154130e+003,4.785579e+001
4.156059e+003,6.361741e+001
4.157987e+003,6.611114e+001
4.159916e+003,5.659558e+001
4.161844e+003,6.356910e+001
4.163773e+003,6.924940e+001
4.165701e+003,5.701360e+001
4.167630e+003,5.958304e+001
4.169558e+003,7.040938e+001
4.171487e+003,6.348265e+001
4.173415e+003,5.693814e+001
4.175344e+003,5.845168e+001
4.177272e+003,6.150517e+001
4.179201e+003,6.473087e+001
4.181129e+003,6.804750e+001
4.183058e+003,6.656311e+001
4.184986e+003,5.954453e+001
4.186915e+003,5.676651e+001
4.188843e+003,5.811337e+001
4.190771e+003,6.535081e+001
4.192700e+003,6.800203e+001
4.194628e+003,6.487962e+001
4.196557e+003,6.155057e+001
4.198485e+003,6.055232e+001
4.200414e+003,6.528413e+001
4.202342e+003,6.549623e+001
4.204271e+003,6.121030e+001
4.206199e+003,5.353402e+001
4.208127e+003,5.078045e+001
4.210056e+003,5.815473e+001
4.211984e+003,6.773370e+001
4.213913e+003,7.514699e+001
4.215841e+003,7.019495e+001
4.217770e+003,6.388445e+001
4.219698e+003,5.869356e+001
4.221627e+003,6.279469e+001
4.223555e+003,6.777716e+001
4.225484e+003,6.166722e+001
4.227412e+003,6.028978e+001
4.229341e+003,6.426149e+001
4.231269e+003,6.251106e+001
4.233198e+003,6.032650e+001
4.235126e+003,6.177057e+001
4.237055e+003,6.213667e+001
4.238983e+003,6.186570e+001
4.240912e+003,6.331781e+001
4.242840e+003,6.271753e+001
4.244769e+003,5.837692e+001
4.246697e+003,5.691438e+001
4.248625e+003,5.775211e+001
4.250554e+003,6.040485e+001
