1.159199e+002,5.694242e+002
1.178484e+002,6.671611e+002
1.197769e+002,7.748582e+002
1.217053e+002,8.933301e+002
1.236338e+002,9.964612e+002
1.255623e+002,1.086095e+003
1.274907e+002,1.160382e+003
1.294192e+002,1.221520e+003
1.313477e+002,1.268255e+003
1.332761e+002,1.299400e+003
1.352046e+002,1.314103e+003
1.371331e+002,1.310379e+003
1.390615e+002,1.289655e+003
1.409900e+002,1.243526e+003
1.429185e+002,1.178340e+003
1.448469e+002,1.102757e+003
1.467754e+002,1.009245e+003
1.487039e+002,9.125837e+002
1.506323e+002,8.165675e+002
1.525608e+002,7.201035e+002
1.544893e+002,6.370288e+002
1.564177e+002,5.716762e+002
1.583462e+002,5.222520e+002
1.602747e+002,4.805270e+002
1.622031e+002,4.490407e+002
1.641316e+002,4.223722e+002
1.660601e+002,3.970607e+002
1.679885e+002,3.724172e+002
1.699170e+002,3.502880e+002
1.718455e+002,3.290474e+002
1.737739e+002,3.089331e+002
1.757024e+002,2.950603e+002
1.776309e+002,2.913840e+002
1.795593e+002,2.912157e+002
1.814878e+002,2.889158e+002
1.834163e+002,2.827323e+002
1.853447e+002,2.762223e+002
1.872732e+002,2.683175e+002
1.892017e+002,2.593074e+002
1.911301e+002,2.551719e+002
1.930586e+002,2.592420e+002
1.949871e+002,2.678443e+002
1.969155e+002,2.771029e+002
1.988440e+002,2.908424e+002
2.007725e+002,3.018919e+002
2.027009e+002,3.086100e+002
2.046294e+002,3.117726e+002
2.065579e+002,3.089198e+002
2.084864e+002,2.992732e+002
2.104148e+002,2.836489e+002
2.123433e+002,2.633193e+002
2.142718e+002,2.327375e+002
2.162002e+002,2.039390e+002
2.181287e+002,1.820462e+002
2.200572e+002,1.698559e+002
2.219856e+002,1.579574e+002
2.239141e+002,1.441336e+002
2.258426e+002,1.302382e+002
2.277710e+002,1.200964e+002
2.296995e+002,1.161525e+002
2.316280e+002,1.136754e+002
2.335564e+002,1.104021e+002
2.354849e+002,1.054545e+002
2.374134e+002,1.009325e+002
2.393418e+002,9.612141e+001
2.412703e+002,9.175842e+001
2.431988e+002,8.935526e+001
2.451272e+002,9.151832e+001
2.470557e+002,9.377278e+001
2.489842e+002,9.381478e+001
2.509126e+002,9.048742e+001
2.528411e+002,8.726458e+001
2.547696e+002,8.423072e+001
2.566980e+002,8.157076e+001
2.586265e+002,7.995309e+001
2.605550e+002,8.080834e+001
2.624834e+002,8.177218e+001
2.644119e+002,8.116162e+001
2.663404e+002,7.823864e+001
2.682688e+002,7.678254e+001
2.701973e+002,7.910996e+001
2.721258e+002,8.409742e+001
2.740542e+002,8.671810e+001
2.759827e+002,8.436430e+001
2.779112e+002,8.169902e+001
2.798396e+002,8.157732e+001
2.817681e+002,8.434050e+001
2.836966e+002,8.681650e+001
2.856250e+002,8.817567e+001
2.875535e+002,8.867112e+001
2.894820e+002,8.919706e+001
2.914104e+002,8.843818e+001
2.933389e+002,8.889095e+001
2.952674e+002,9.206337e+001
2.971958e+002,9.847517e+001
2.991243e+002,1.049917e+002
3.010528e+002,1.110107e+002
3.029813e+002,1.167067e+002
3.049097e+002,1.227460e+002
3.068382e+002,1.301130e+002
3.087667e+002,1.365937e+002
3.106951e+002,1.418758e+002
3.126236e+002,1.467820e+002
3.145521e+002,1.471285e+002
3.164805e+002,1.398754e+002
3.184090e+002,1.283503e+002
3.203375e+002,1.194371e+002
3.222659e+002,1.131311e+002
3.241944e+002,1.096098e+002
3.261229e+002,1.090741e+002
3.280513e+002,1.133724e+002
3.299798e+002,1.160076e+002
3.319083e+002,1.141789e+002
3.338367e+002,1.116427e+002
3.357652e+002,1.134673e+002
3.376937e+002,1.222058e+002
3.396221e+002,1.310737e+002
3.415506e+002,1.374392e+002
3.434791e+002,1.404196e+002
3.454075e+002,1.451550e+002
3.473360e+002,1.532786e+002
3.492645e+002,1.622606e+002
3.511929e+002,1.704433e+002
3.531214e+002,1.792808e+002
3.550499e+002,1.841962e+002
3.569783e+002,1.837626e+002
3.589068e+002,1.778168e+002
3.608353e+002,1.705987e+002
3.627637e+002,1.608756e+002
3.646922e+002,1.508884e+002
3.666207e+002,1.419110e+002
3.685491e+002,1.341873e+002
3.704776e+002,1.271290e+002
3.724061e+002,1.204932e+002
3.743345e+002,1.144713e+002
3.762630e+002,1.094366e+002
3.781915e+002,1.055445e+002
3.801199e+002,1.024795e+002
3.820484e+002,9.987218e+001
3.839769e+002,9.747065e+001
3.859053e+002,9.627909e+001
3.878338e+002,9.668839e+001
3.897623e+002,9.818815e+001
3.916907e+002,1.001609e+002
3.936192e+002,1.039247e+002
3.955477e+002,1.056855e+002
3.974761e+002,1.034020e+002
3.994046e+002,9.583448e+001
4.013331e+002,9.157944e+001
4.032615e+002,9.246605e+001
4.051900e+002,9.536575e+001
4.071185e+002,9.797974e+001
4.090469e+002,1.007174e+002
4.109754e+002,1.022150e+002
4.129039e+002,1.010217e+002
4.148323e+002,9.788602e+001
4.167608e+002,9.758744e+001
4.186893e+002,1.040445e+002
4.206177e+002,1.096212e+002
4.225462e+002,1.095533e+002
4.244747e+002,1.025718e+002
4.264032e+002,9.881403e+001
4.283316e+002,1.018497e+002
4.302601e+002,1.083525e+002
4.321886e+002,1.129812e+002
4.341170e+002,1.151822e+002
4.360455e+002,1.168065e+002
4.379740e+002,1.179991e+002
4.399024e+002,1.188404e+002
4.418309e+002,1.207621e+002
4.437594e+002,1.224651e+002
4.456878e+002,1.260677e+002
4.476163e+002,1.334656e+002
4.495448e+002,1.446025e+002
4.514732e+002,1.583800e+002
4.534017e+002,1.769557e+002
4.553302e+002,1.980884e+002
4.572586e+002,2.168922e+002
4.591871e+002,2.409399e+002
4.611156e+002,2.555719e+002
4.630440e+002,2.517379e+002
4.649725e+002,2.299058e+002
4.669010e+002,2.099665e+002
4.688294e+002,1.948561e+002
4.707579e+002,1.822794e+002
4.726864e+002,1.704412e+002
4.746148e+002,1.587849e+002
4.765433e+002,1.485656e+002
4.784718e+002,1.400815e+002
4.804002e+002,1.332273e+002
4.823287e+002,1.274297e+002
4.842572e+002,1.230689e+002
4.861856e+002,1.194411e+002
4.881141e+002,1.161729e+002
4.900426e+002,1.131797e+002
4.919710e+002,1.111771e+002
4.938995e+002,1.095041e+002
4.958280e+002,1.092521e+002
4.977564e+002,1.118729e+002
4.996849e+002,1.189521e+002
5.016134e+002,1.241965e+002
5.035418e+002,1.244337e+002
5.054703e+002,1.212577e+002
5.073988e+002,1.215202e+002
5.093272e+002,1.267422e+002
5.112557e+002,1.333173e+002
5.131842e+002,1.412857e+002
5.151127e+002,1.505772e+002
5.170411e+002,1.564544e+002
5.189696e+002,1.573307e+002
5.208981e+002,1.550618e+002
5.228265e+002,1.503514e+002
5.247550e+002,1.413739e+002
5.266835e+002,1.337437e+002
5.286119e+002,1.293924e+002
5.305404e+002,1.267933e+002
5.324689e+002,1.231266e+002
5.343973e+002,1.159397e+002
5.363258e+002,1.104138e+002
5.382543e+002,1.083484e+002
5.401827e+002,1.100989e+002
5.421112e+002,1.122695e+002
5.440397e+002,1.156159e+002
5.459681e+002,1.186514e+002
5.478966e+002,1.206426e+002
5.498251e+002,1.215580e+002
5.517535e+002,1.214690e+002
5.536820e+002,1.197374e+002
5.556105e+002,1.174230e+002
5.575389e+002,1.161694e+002
5.594674e+002,1.159104e+002
5.613959e+002,1.166864e+002
5.633243e+002,1.198667e+002
5.652528e+002,1.245881e+002
5.671813e+002,1.266895e+002
5.691097e+002,1.233303e+002
5.710382e+002,1.195691e+002
5.729667e+002,1.173239e+002
5.748951e+002,1.166932e+002
5.768236e+002,1.159838e+002
5.787521e+002,1.129009e+002
5.806805e+002,1.111957e+002
5.826090e+002,1.135748e+002
5.845375e+002,1.210689e+002
5.864659e+002,1.312568e+002
5.883944e+002,1.442691e+002
5.903229e+002,1.596395e+002
5.922513e+002,1.775756e+002
5.941798e+002,2.030150e+002
5.961083e+002,2.214028e+002
5.980367e+002,2.247764e+002
5.999652e+002,2.148832e+002
6.018937e+002,2.086414e+002
6.038221e+002,2.006228e+002
6.057506e+002,2.006926e+002
6.076791e+002,2.199481e+002
6.096075e+002,2.585258e+002
6.115360e+002,2.852808e+002
6.134645e+002,2.955878e+002
6.153929e+002,2.917330e+002
6.173214e+002,2.742773e+002
6.192499e+002,2.320467e+002
6.211783e+002,1.973289e+002
6.231068e+002,1.737684e+002
6.250353e+002,1.583635e+002
6.269637e+002,1.466533e+002
6.288922e+002,1.393746e+002
6.308207e+002,1.334828e+002
6.327491e+002,1.275527e+002
6.346776e+002,1.219460e+002
6.366061e+002,1.187323e+002
6.385345e+002,1.205815e+002
6.404630e+002,1.220177e+002
6.423915e+002,1.201808e+002
6.443199e+002,1.156503e+002
6.462484e+002,1.139249e+002
6.481769e+002,1.173700e+002
6.501053e+002,1.220140e+002
6.520338e+002,1.258384e+002
6.539623e+002,1.287910e+002
6.558907e+002,1.311463e+002
6.578192e+002,1.324859e+002
6.597477e+002,1.335562e+002
6.616761e+002,1.342408e+002
6.636046e+002,1.335780e+002
6.655331e+002,1.365125e+002
6.674615e+002,1.487824e+002
6.693900e+002,1.640018e+002
6.713185e+002,1.738926e+002
6.732469e+002,1.749163e+002
6.751754e+002,1.742813e+002
6.771039e+002,1.721529e+002
6.790323e+002,1.687654e+002
6.809608e+002,1.648627e+002
6.828893e+002,1.600181e+002
6.848177e+002,1.552891e+002
6.867462e+002,1.507906e+002
6.886747e+002,1.465106e+002
6.906031e+002,1.431281e+002
6.925316e+002,1.415685e+002
6.944601e+002,1.399709e+002
6.963885e+002,1.372215e+002
6.983170e+002,1.334526e+002
7.002455e+002,1.307046e+002
7.021740e+002,1.292017e+002
7.041024e+002,1.288845e+002
7.060309e+002,1.301700e+002
7.079594e+002,1.343351e+002
7.098878e+002,1.357242e+002
7.118163e+002,1.299454e+002
7.137448e+002,1.241372e+002
7.156732e+002,1.262595e+002
7.176017e+002,1.375865e+002
7.195302e+002,1.461075e+002
7.214586e+002,1.466301e+002
7.233871e+002,1.445437e+002
7.253156e+002,1.449907e+002
7.272440e+002,1.477065e+002
7.291725e+002,1.539308e+002
7.311010e+002,1.628005e+002
7.330294e+002,1.754606e+002
7.349579e+002,1.961426e+002
7.368864e+002,2.321413e+002
7.388149e+002,2.579866e+002
7.407433e+002,2.625768e+002
7.426718e+002,2.514104e+002
7.446003e+002,2.344270e+002
7.465287e+002,2.027414e+002
7.484572e+002,1.758161e+002
7.503857e+002,1.582281e+002
7.523141e+002,1.489438e+002
7.542426e+002,1.418539e+002
7.561711e+002,1.367417e+002
7.580995e+002,1.340942e+002
7.600280e+002,1.352491e+002
7.619565e+002,1.394102e+002
7.638849e+002,1.425693e+002
7.658134e+002,1.413143e+002
7.677419e+002,1.420950e+002
7.696703e+002,1.480284e+002
7.715988e+002,1.591394e+002
7.735273e+002,1.684446e+002
7.754557e+002,1.766219e+002
7.773842e+002,1.821810e+002
7.793127e+002,1.839770e+002
7.812411e+002,1.823135e+002
7.831696e+002,1.798208e+002
7.850981e+002,1.751902e+002
7.870266e+002,1.712908e+002
7.889550e+002,1.688607e+002
7.908835e+002,1.678464e+002
7.928120e+002,1.703839e+002
7.947404e+002,1.754342e+002
7.966689e+002,1.850936e+002
7.985974e+002,1.987282e+002
8.005258e+002,2.159510e+002
8.024543e+002,2.441330e+002
8.043828e+002,2.915911e+002
8.063112e+002,3.449782e+002
8.082397e+002,4.002960e+002
8.101682e+002,4.620924e+002
8.120966e+002,5.066361e+002
8.140251e+002,5.247933e+002
8.159536e+002,5.324489e+002
8.178820e+002,5.408864e+002
8.198105e+002,5.507255e+002
8.217390e+002,5.544517e+002
8.236674e+002,5.559724e+002
8.255959e+002,5.469757e+002
8.275244e+002,5.202369e+002
8.294528e+002,4.677363e+002
8.313813e+002,4.163427e+002
8.333098e+002,3.591648e+002
8.352382e+002,3.072466e+002
8.371667e+002,2.699749e+002
8.390952e+002,2.467578e+002
8.410236e+002,2.301762e+002
8.429521e+002,2.233219e+002
8.448806e+002,2.195648e+002
8.468090e+002,2.148120e+002
8.487375e+002,2.089160e+002
8.506660e+002,2.023245e+002
8.525944e+002,1.959066e+002
8.545229e+002,1.882753e+002
8.564514e+002,1.764616e+002
8.583798e+002,1.599653e+002
8.603083e+002,1.489637e+002
8.622368e+002,1.479046e+002
8.641652e+002,1.506497e+002
8.660937e+002,1.538296e+002
8.680222e+002,1.580903e+002
8.699506e+002,1.595375e+002
8.718791e+002,1.556476e+002
8.738076e+002,1.509749e+002
8.757360e+002,1.484149e+002
8.776645e+002,1.482281e+002
8.795930e+002,1.483247e+002
8.815214e+002,1.478208e+002
8.834499e+002,1.484077e+002
8.853784e+002,1.522449e+002
8.873068e+002,1.594702e+002
8.892353e+002,1.631396e+002
8.911638e+002,1.560103e+002
8.930922e+002,1.506819e+002
8.950207e+002,1.538446e+002
8.969492e+002,1.667318e+002
8.988776e+002,1.782976e+002
9.008061e+002,1.892402e+002
9.027346e+002,1.982080e+002
9.046630e+002,2.058064e+002
9.065915e+002,2.115917e+002
9.085200e+002,2.107655e+002
9.104484e+002,1.985074e+002
9.123769e+002,1.853560e+002
9.143054e+002,1.750366e+002
9.162338e+002,1.675013e+002
9.181623e+002,1.615927e+002
9.200908e+002,1.572229e+002
9.220192e+002,1.542698e+002
9.239477e+002,1.521704e+002
9.258762e+002,1.514633e+002
9.278046e+002,1.540172e+002
9.297331e+002,1.621979e+002
9.316616e+002,1.691829e+002
9.335900e+002,1.702575e+002
9.355185e+002,1.680461e+002
9.374470e+002,1.703009e+002
9.393754e+002,1.834659e+002
9.413039e+002,1.927656e+002
9.432324e+002,1.939159e+002
9.451608e+002,1.903393e+002
9.470893e+002,1.892461e+002
9.490178e+002,1.926412e+002
9.509462e+002,1.930484e+002
9.528747e+002,1.851294e+002
9.548032e+002,1.750476e+002
9.567316e+002,1.697633e+002
9.586601e+002,1.705058e+002
9.605886e+002,1.719842e+002
9.625170e+002,1.706476e+002
9.644455e+002,1.712171e+002
9.663740e+002,1.777419e+002
9.683024e+002,1.910746e+002
9.702309e+002,2.093807e+002
9.721594e+002,2.308020e+002
9.740878e+002,2.586946e+002
9.760163e+002,2.950556e+002
9.779448e+002,3.394173e+002
9.798733e+002,3.923335e+002
9.818018e+002,4.430339e+002
9.837302e+002,5.165511e+002
9.856587e+002,6.209233e+002
9.875872e+002,7.555361e+002
9.895156e+002,9.244160e+002
9.914441e+002,1.200008e+003
9.933726e+002,1.427172e+003
9.953010e+002,1.584463e+003
9.972295e+002,1.654742e+003
9.991580e+002,1.586272e+003
1.001086e+003,1.320870e+003
1.003015e+003,1.044004e+003
1.004943e+003,7.889722e+002
1.006872e+003,5.700292e+002
1.008800e+003,4.165603e+002
1.010729e+003,3.430879e+002
1.012657e+003,3.033077e+002
1.014586e+003,2.972263e+002
1.016514e+003,3.119986e+002
1.018443e+003,3.349057e+002
1.020371e+003,3.674614e+002
1.022300e+003,4.054095e+002
1.024228e+003,4.703499e+002
1.026156e+003,5.236726e+002
1.028085e+003,5.347321e+002
1.030013e+003,5.075873e+002
1.031942e+003,4.683414e+002
1.033870e+003,4.114808e+002
1.035799e+003,3.538387e+002
1.037727e+003,2.992080e+002
1.039656e+003,2.484154e+002
1.041584e+003,2.107718e+002
1.043513e+003,1.932456e+002
1.045441e+003,1.809371e+002
1.047370e+003,1.721134e+002
1.049298e+003,1.664388e+002
1.051227e+003,1.634088e+002
1.053155e+003,1.635114e+002
1.055083e+003,1.645352e+002
1.057012e+003,1.668708e+002
1.058940e+003,1.693764e+002
1.060869e+003,1.709185e+002
1.062797e+003,1.713505e+002
1.064726e+003,1.715323e+002
1.066654e+003,1.714024e+002
1.068583e+003,1.710871e+002
1.070511e+003,1.706210e+002
1.072440e+003,1.699755e+002
1.074368e+003,1.691663e+002
1.076297e+003,1.679787e+002
1.078225e+003,1.669955e+002
1.080154e+003,1.669268e+002
1.082082e+003,1.673243e+002
1.084010e+003,1.668082e+002
1.085939e+003,1.651772e+002
1.087867e+003,1.633373e+002
1.089796e+003,1.602255e+002
1.091724e+003,1.576723e+002
1.093653e+003,1.583260e+002
1.095581e+003,1.634774e+002
1.097510e+003,1.673001e+002
1.099438e+003,1.674154e+002
1.101367e+003,1.674695e+002
1.103295e+003,1.705742e+002
1.105224e+003,1.772110e+002
1.107152e+003,1.809365e+002
1.109081e+003,1.770630e+002
1.111009e+003,1.757679e+002
1.112938e+003,1.826728e+002
1.114866e+003,1.946757e+002
1.116794e+003,2.050134e+002
1.118723e+003,2.141356e+002
1.120651e+003,2.195191e+002
1.122580e+003,2.175773e+002
1.124508e+003,2.128946e+002
1.126437e+003,2.102333e+002
1.128365e+003,2.108711e+002
1.130294e+003,2.095649e+002
1.132222e+003,2.016464e+002
1.134151e+003,1.962203e+002
1.136079e+003,1.976629e+002
1.138008e+003,2.062129e+002
1.139936e+003,2.209442e+002
1.141865e+003,2.471073e+002
1.143793e+003,2.712318e+002
1.145721e+003,2.889312e+002
1.147650e+003,3.015878e+002
1.149578e+003,3.130335e+002
1.151507e+003,3.251676e+002
1.153435e+003,3.271874e+002
1.155364e+003,3.056211e+002
1.157292e+003,2.820870e+002
1.159221e+003,2.711422e+002
1.161149e+003,2.748938e+002
1.163078e+003,2.763793e+002
1.165006e+003,2.712510e+002
1.166935e+003,2.691698e+002
1.168863e+003,2.723522e+002
1.170792e+003,2.808242e+002
1.172720e+003,2.958110e+002
1.174648e+003,3.205240e+002
1.176577e+003,3.423503e+002
1.178505e+003,3.630182e+002
1.180434e+003,3.763933e+002
1.182362e+003,3.757316e+002
1.184291e+003,3.615402e+002
1.186219e+003,3.457540e+002
1.188148e+003,3.210424e+002
1.190076e+003,3.080196e+002
1.192005e+003,3.123559e+002
1.193933e+003,3.341666e+002
1.195862e+003,3.742610e+002
1.197790e+003,4.433386e+002
1.199719e+003,5.146776e+002
1.201647e+003,6.044976e+002
1.203575e+003,6.824661e+002
1.205504e+003,7.200427e+002
1.207432e+003,7.128062e+002
1.209361e+003,6.865471e+002
1.211289e+003,6.327808e+002
1.213218e+003,5.707232e+002
1.215146e+003,5.019165e+002
1.217075e+003,4.320917e+002
1.219003e+003,3.714221e+002
1.220932e+003,3.197354e+002
1.222860e+003,2.791262e+002
1.224789e+003,2.554052e+002
1.226717e+003,2.391160e+002
1.228646e+003,2.234513e+002
1.230574e+003,2.077209e+002
1.232502e+003,1.990331e+002
1.234431e+003,2.050199e+002
1.236359e+003,2.093115e+002
1.238288e+003,2.063501e+002
1.240216e+003,1.991107e+002
1.242145e+003,1.933046e+002
1.244073e+003,1.882265e+002
1.246002e+003,1.866079e+002
1.247930e+003,1.937607e+002
1.249859e+003,2.000879e+002
1.251787e+003,1.968903e+002
1.253716e+003,1.868891e+002
1.255644e+003,1.822343e+002
1.257573e+003,1.853861e+002
1.259501e+003,1.899632e+002
1.261429e+003,1.942111e+002
1.263358e+003,1.983378e+002
1.265286e+003,2.033010e+002
1.267215e+003,2.097806e+002
1.269143e+003,2.122068e+002
1.271072e+003,2.030790e+002
1.273000e+003,1.969760e+002
1.274929e+003,1.997198e+002
1.276857e+003,2.098169e+002
1.278786e+003,2.222043e+002
1.280714e+003,2.391335e+002
1.282643e+003,2.552931e+002
1.284571e+003,2.715334e+002
1.286500e+003,2.863787e+002
1.288428e+003,2.960667e+002
1.290356e+003,3.016660e+002
1.292285e+003,3.158992e+002
1.294213e+003,3.428260e+002
1.296142e+003,3.714075e+002
1.298070e+003,4.042551e+002
1.299999e+003,4.326409e+002
1.301927e+003,4.481494e+002
1.303856e+003,4.505875e+002
1.305784e+003,4.395918e+002
1.307713e+003,4.042609e+002
1.309641e+003,3.699252e+002
1.311570e+003,3.473492e+002
1.313498e+003,3.337694e+002
1.315427e+003,3.216205e+002
1.317355e+003,3.097490e+002
1.319283e+003,3.020794e+002
1.321212e+003,2.997470e+002
1.323140e+003,3.005608e+002
1.325069e+003,3.040370e+002
1.326997e+003,3.098860e+002
1.328926e+003,3.152198e+002
1.330854e+003,3.204382e+002
1.332783e+003,3.244948e+002
1.334711e+003,3.300486e+002
1.336640e+003,3.324164e+002
1.338568e+003,3.247281e+002
1.340497e+003,3.080944e+002
1.342425e+003,2.950582e+002
1.344354e+003,2.880720e+002
1.346282e+003,2.819870e+002
1.348210e+003,2.762245e+002
1.350139e+003,2.694463e+002
1.352068e+003,2.586864e+002
1.353996e+003,2.434079e+002
1.355924e+003,2.328253e+002
1.357853e+003,2.306118e+002
1.359781e+003,2.299949e+002
1.361710e+003,2.294301e+002
1.363638e+003,2.282732e+002
1.365567e+003,2.249119e+002
1.367495e+003,2.179409e+002
1.369424e+003,2.127608e+002
1.371352e+003,2.100979e+002
1.373281e+003,2.088574e+002
1.375209e+003,2.088714e+002
1.377138e+003,2.099803e+002
1.379066e+003,2.115742e+002
1.380995e+003,2.134338e+002
1.382923e+003,2.161268e+002
1.384851e+003,2.193565e+002
1.386780e+003,2.235918e+002
1.388708e+003,2.291678e+002
1.390637e+003,2.359749e+002
1.392565e+003,2.427758e+002
1.394494e+003,2.476480e+002
1.396422e+003,2.585827e+002
1.398351e+003,2.829335e+002
1.400279e+003,3.092185e+002
1.402208e+003,3.342291e+002
1.404136e+003,3.550542e+002
1.406065e+003,3.584025e+002
1.407993e+003,3.385901e+002
1.409922e+003,3.160722e+002
1.411850e+003,2.931210e+002
1.413778e+003,2.729296e+002
1.415707e+003,2.568351e+002
1.417635e+003,2.451443e+002
1.419564e+003,2.402278e+002
1.421492e+003,2.429780e+002
1.423421e+003,2.513062e+002
1.425349e+003,2.700083e+002
1.427278e+003,2.892944e+002
1.429206e+003,2.995568e+002
1.431135e+003,3.008680e+002
1.433063e+003,3.079497e+002
1.434992e+003,3.319577e+002
1.436920e+003,3.459861e+002
1.438849e+003,3.439496e+002
1.440777e+003,3.333312e+002
1.442705e+003,3.181173e+002
1.444634e+003,2.987885e+002
1.446562e+003,2.824487e+002
1.448491e+003,2.690902e+002
1.450419e+003,2.585339e+002
1.452348e+003,2.507135e+002
1.454276e+003,2.456718e+002
1.456205e+003,2.444547e+002
1.458133e+003,2.463995e+002
1.460062e+003,2.475390e+002
1.461990e+003,2.470273e+002
1.463919e+003,2.476601e+002
1.465847e+003,2.521020e+002
1.467776e+003,2.563449e+002
1.469704e+003,2.559239e+002
1.471632e+003,2.528312e+002
1.473561e+003,2.546933e+002
1.475489e+003,2.638026e+002
1.477418e+003,2.710883e+002
1.479346e+003,2.718139e+002
1.481275e+003,2.723037e+002
1.483203e+003,2.775823e+002
1.485132e+003,2.858582e+002
1.487060e+003,2.910277e+002
1.488989e+003,2.936032e+002
1.490917e+003,2.907067e+002
1.492846e+003,2.769675e+002
1.494774e+003,2.628170e+002
1.496703e+003,2.527956e+002
1.498631e+003,2.463625e+002
1.500559e+003,2.421690e+002
1.502488e+003,2.408404e+002
1.504416e+003,2.399765e+002
1.506345e+003,2.385818e+002
1.508273e+003,2.383877e+002
1.510202e+003,2.403912e+002
1.512130e+003,2.439118e+002
1.514059e+003,2.477973e+002
1.515987e+003,2.523036e+002
1.517916e+003,2.566746e+002
1.519844e+003,2.610273e+002
1.521773e+003,2.653633e+002
1.523701e+003,2.711589e+002
1.525630e+003,2.761213e+002
1.527558e+003,2.767014e+002
1.529486e+003,2.722323e+002
1.531415e+003,2.679771e+002
1.533343e+003,2.630799e+002
1.535272e+003,2.592820e+002
1.537200e+003,2.584366e+002
1.539129e+003,2.576642e+002
1.541057e+003,2.535726e+002
1.542986e+003,2.468879e+002
1.544914e+003,2.432085e+002
1.546843e+003,2.437085e+002
1.548771e+003,2.444647e+002
1.550700e+003,2.444760e+002
1.552628e+003,2.447482e+002
1.554557e+003,2.464698e+002
1.556485e+003,2.487256e+002
1.558413e+003,2.483721e+002
1.560342e+003,2.442874e+002
1.562270e+003,2.444385e+002
1.564199e+003,2.525858e+002
1.566127e+003,2.616854e+002
1.568056e+003,2.645900e+002
1.569984e+003,2.687515e+002
1.571913e+003,2.839434e+002
1.573841e+003,3.099390e+002
1.575770e+003,3.428974e+002
1.577698e+003,3.917617e+002
1.579627e+003,4.258352e+002
1.581555e+003,4.253241e+002
1.583484e+003,4.130052e+002
1.585412e+003,4.023378e+002
1.587340e+003,3.951974e+002
1.589269e+003,4.001019e+002
1.591197e+003,4.189377e+002
1.593126e+003,4.442237e+002
1.595054e+003,4.830658e+002
1.596983e+003,5.165412e+002
1.598911e+003,5.372318e+002
1.600840e+003,5.448559e+002
1.602768e+003,5.379619e+002
1.604697e+003,5.159740e+002
1.606625e+003,4.841813e+002
1.608554e+003,4.338413e+002
1.610482e+003,3.912028e+002
1.612411e+003,3.692208e+002
1.614339e+003,3.555385e+002
1.616267e+003,3.400341e+002
1.618196e+003,3.232622e+002
1.620124e+003,3.092650e+002
1.622053e+003,2.977159e+002
1.623981e+003,2.901886e+002
1.625910e+003,2.898154e+002
1.627838e+003,2.902441e+002
1.629767e+003,2.893324e+002
1.631695e+003,2.867339e+002
1.633624e+003,2.812419e+002
1.635552e+003,2.721778e+002
1.637481e+003,2.649727e+002
1.639409e+003,2.599865e+002
1.641338e+003,2.570657e+002
1.643266e+003,2.577177e+002
1.645194e+003,2.590822e+002
1.647123e+003,2.600615e+002
1.649051e+003,2.600431e+002
1.650980e+003,2.545535e+002
1.652908e+003,2.396017e+002
1.654837e+003,2.305423e+002
1.656765e+003,2.340931e+002
1.658694e+003,2.375887e+002
1.660622e+003,2.352536e+002
1.662551e+003,2.315356e+002
1.664479e+003,2.327398e+002
1.666408e+003,2.393132e+002
1.668336e+003,2.434046e+002
1.670265e+003,2.443570e+002
1.672193e+003,2.444984e+002
1.674121e+003,2.450621e+002
1.676050e+003,2.439643e+002
1.677978e+003,2.375559e+002
1.679907e+003,2.292936e+002
1.681835e+003,2.272106e+002
1.683764e+003,2.330547e+002
1.685692e+003,2.356922e+002
1.687621e+003,2.319358e+002
1.689549e+003,2.294576e+002
1.691478e+003,2.309402e+002
1.693406e+003,2.332430e+002
1.695335e+003,2.338216e+002
1.697263e+003,2.336001e+002
1.699192e+003,2.359543e+002
1.701120e+003,2.426902e+002
1.703048e+003,2.454583e+002
1.704977e+003,2.400708e+002
1.706905e+003,2.355046e+002
1.708834e+003,2.347583e+002
1.710762e+003,2.348363e+002
1.712691e+003,2.327482e+002
1.714619e+003,2.291509e+002
1.716548e+003,2.274316e+002
1.718476e+003,2.277587e+002
1.720405e+003,2.299426e+002
1.722333e+003,2.385963e+002
1.724262e+003,2.429642e+002
1.726190e+003,2.345519e+002
1.728119e+003,2.246568e+002
1.730047e+003,2.257657e+002
1.731975e+003,2.359371e+002
1.733904e+003,2.403727e+002
1.735832e+003,2.374817e+002
1.737761e+003,2.342457e+002
1.739689e+003,2.306112e+002
1.741618e+003,2.280875e+002
1.743546e+003,2.264380e+002
1.745475e+003,2.266768e+002
1.747403e+003,2.313730e+002
1.749332e+003,2.394297e+002
1.751260e+003,2.425665e+002
1.753189e+003,2.397697e+002
1.755117e+003,2.360415e+002
1.757046e+003,2.297936e+002
1.758974e+003,2.265831e+002
1.760902e+003,2.317656e+002
1.762831e+003,2.381479e+002
1.764759e+003,2.382228e+002
1.766688e+003,2.337291e+002
1.768616e+003,2.329006e+002
1.770545e+003,2.365627e+002
1.772473e+003,2.388411e+002
1.774402e+003,2.377461e+002
1.776330e+003,2.368175e+002
1.778259e+003,2.374775e+002
1.780187e+003,2.387659e+002
1.782116e+003,2.403387e+002
1.784044e+003,2.419447e+002
1.785973e+003,2.425369e+002
1.787901e+003,2.420340e+002
1.789829e+003,2.429078e+002
1.791758e+003,2.468633e+002
1.793686e+003,2.490838e+002
1.795615e+003,2.471174e+002
1.797543e+003,2.437043e+002
1.799472e+003,2.396769e+002
1.801400e+003,2.359853e+002
1.803329e+003,2.340893e+002
1.805257e+003,2.340077e+002
1.807186e+003,2.372297e+002
1.809114e+003,2.458781e+002
1.811043e+003,2.518062e+002
1.812971e+003,2.515263e+002
1.814900e+003,2.493821e+002
1.816828e+003,2.467559e+002
1.818756e+003,2.443374e+002
1.820685e+003,2.432234e+002
1.822613e+003,2.432755e+002
1.824542e+003,2.438405e+002
1.826470e+003,2.460422e+002
1.828399e+003,2.446249e+002
1.830327e+003,2.322254e+002
1.832256e+003,2.246355e+002
1.834184e+003,2.324594e+002
1.836113e+003,2.434417e+002
1.838041e+003,2.448917e+002
1.839970e+003,2.398136e+002
1.841898e+003,2.393649e+002
1.843827e+003,2.458766e+002
1.845755e+003,2.486688e+002
1.847684e+003,2.437450e+002
1.849612e+003,2.408799e+002
1.851541e+003,2.430442e+002
1.853469e+003,2.461826e+002
1.855397e+003,2.478620e+002
1.857326e+003,2.487147e+002
1.859254e+003,2.500106e+002
1.861183e+003,2.517483e+002
1.863111e+003,2.524495e+002
1.865040e+003,2.512707e+002
1.866968e+003,2.511357e+002
1.868897e+003,2.545532e+002
1.870825e+003,2.561397e+002
1.872754e+003,2.516424e+002
1.874682e+003,2.472359e+002
1.876611e+003,2.494521e+002
1.878539e+003,2.556317e+002
1.880468e+003,2.574303e+002
1.882396e+003,2.544511e+002
1.884324e+003,2.541664e+002
1.886253e+003,2.587480e+002
1.888181e+003,2.609955e+002
1.890110e+003,2.576410e+002
1.892038e+003,2.537262e+002
1.893967e+003,2.509795e+002
1.895895e+003,2.495220e+002
1.897824e+003,2.497976e+002
1.899752e+003,2.514624e+002
1.901681e+003,2.536092e+002
1.903609e+003,2.563003e+002
1.905538e+003,2.589728e+002
1.907466e+003,2.625624e+002
1.909395e+003,2.637942e+002
1.911323e+003,2.593638e+002
1.913251e+003,2.550597e+002
1.915180e+003,2.546444e+002
1.917108e+003,2.556338e+002
1.919037e+003,2.541443e+002
1.920965e+003,2.508995e+002
1.922894e+003,2.507971e+002
1.924822e+003,2.548225e+002
1.926751e+003,2.581859e+002
1.928679e+003,2.614128e+002
1.930608e+003,2.630589e+002
1.932536e+003,2.610280e+002
1.934465e+003,2.595190e+002
1.936393e+003,2.625242e+002
1.938322e+003,2.662390e+002
1.940250e+003,2.643771e+002
1.942178e+003,2.580114e+002
1.944107e+003,2.556130e+002
1.946035e+003,2.583772e+002
1.947964e+003,2.601838e+002
1.949892e+003,2.596777e+002
1.951821e+003,2.605247e+002
1.953749e+003,2.649675e+002
1.955678e+003,2.693583e+002
1.957606e+003,2.735966e+002
1.959535e+003,2.755779e+002
1.961463e+003,2.699684e+002
1.963392e+003,2.603723e+002
1.965320e+003,2.597473e+002
1.967249e+003,2.685119e+002
1.969177e+003,2.742780e+002
1.971105e+003,2.760183e+002
1.973034e+003,2.737478e+002
1.974962e+003,2.606840e+002
1.976891e+003,2.535204e+002
1.978819e+003,2.667879e+002
1.980748e+003,2.831024e+002
1.982676e+003,2.851669e+002
1.984605e+003,2.781243e+002
1.986533e+003,2.742770e+002
1.988462e+003,2.737740e+002
1.990390e+003,2.729087e+002
1.992319e+003,2.708532e+002
1.994247e+003,2.699682e+002
1.996176e+003,2.713556e+002
1.998104e+003,2.725846e+002
2.000032e+003,2.723411e+002
2.001961e+003,2.725825e+002
2.003889e+003,2.753264e+002
2.005818e+003,2.787152e+002
2.007746e+003,2.797574e+002
2.009675e+003,2.787989e+002
2.011603e+003,2.788046e+002
2.013532e+003,2.800060e+002
2.015460e+003,2.790981e+002
2.017389e+003,2.748973e+002
2.019317e+003,2.716987e+002
2.021246e+003,2.699955e+002
2.023174e+003,2.706633e+002
2.025103e+003,2.765833e+002
2.027031e+003,2.826495e+002
2.028959e+003,2.837334e+002
2.030888e+003,2.821183e+002
2.032816e+003,2.823052e+002
2.034745e+003,2.841414e+002
2.036673e+003,2.851484e+002
2.038602e+003,2.850852e+002
2.040530e+003,2.850955e+002
2.042459e+003,2.843737e+002
2.044387e+003,2.851317e+002
2.046316e+003,2.896388e+002
2.048244e+003,2.932476e+002
2.050173e+003,2.926763e+002
2.052101e+003,2.912615e+002
2.054030e+003,2.922553e+002
2.055958e+003,2.947523e+002
2.057886e+003,2.970963e+002
2.059815e+003,2.991573e+002
2.061743e+003,2.991857e+002
2.063672e+003,2.967444e+002
2.065600e+003,2.954836e+002
2.067529e+003,2.964308e+002
2.069457e+003,2.970949e+002
2.071386e+003,2.972032e+002
2.073314e+003,2.962158e+002
2.075243e+003,2.925979e+002
2.077171e+003,2.891157e+002
2.079100e+003,2.877919e+002
2.081028e+003,2.886274e+002
2.082957e+003,2.927041e+002
2.084885e+003,2.995598e+002
2.086813e+003,3.028972e+002
2.088742e+003,3.011877e+002
2.090670e+003,3.001587e+002
2.092599e+003,2.992314e+002
2.094527e+003,2.999958e+002
2.096456e+003,3.043396e+002
2.098384e+003,3.080493e+002
2.100313e+003,3.092549e+002
2.102241e+003,3.099206e+002
2.104170e+003,3.114716e+002
2.106098e+003,3.131670e+002
2.108027e+003,3.128874e+002
2.109955e+003,3.121074e+002
2.111884e+003,3.168312e+002
2.113812e+003,3.270401e+002
2.115740e+003,3.311139e+002
2.117669e+003,3.266619e+002
2.119597e+003,3.219484e+002
2.121526e+003,3.156761e+002
2.123454e+003,3.126827e+002
2.125383e+003,3.159601e+002
2.127311e+003,3.201381e+002
2.129240e+003,3.254648e+002
2.131168e+003,3.276026e+002
2.133097e+003,3.169435e+002
2.135025e+003,3.034138e+002
2.136954e+003,3.088645e+002
2.138882e+003,3.282393e+002
2.140811e+003,3.356801e+002
2.142739e+003,3.308415e+002
2.144667e+003,3.250178e+002
2.146596e+003,3.183777e+002
2.148524e+003,3.149145e+002
2.150453e+003,3.165435e+002
2.152381e+003,3.190281e+002
2.154310e+003,3.219560e+002
2.156238e+003,3.241798e+002
2.158167e+003,3.248584e+002
2.160095e+003,3.248877e+002
2.162024e+003,3.251967e+002
2.163952e+003,3.254587e+002
2.165881e+003,3.248456e+002
2.167809e+003,3.235621e+002
2.169738e+003,3.225986e+002
2.171666e+003,3.218568e+002
2.173594e+003,3.221992e+002
2.175523e+003,3.237509e+002
2.177451e+003,3.256578e+002
2.179380e+003,3.292520e+002
2.181308e+003,3.291858e+002
2.183237e+003,3.213176e+002
2.185165e+003,3.137040e+002
2.187094e+003,3.085026e+002
2.189022e+003,3.064531e+002
2.190951e+003,3.107869e+002
2.192879e+003,3.163949e+002
2.194808e+003,3.143743e+002
2.196736e+003,3.087976e+002
2.198665e+003,3.134754e+002
2.200593e+003,3.277454e+002
2.202521e+003,3.299861e+002
2.204450e+003,3.188794e+002
2.206378e+003,3.116638e+002
2.208307e+003,3.104916e+002
2.210235e+003,3.101612e+002
2.212164e+003,3.095836e+002
2.214092e+003,3.102421e+002
2.216021e+003,3.133506e+002
2.217949e+003,3.169325e+002
2.219878e+003,3.210007e+002
2.221806e+003,3.241021e+002
2.223735e+003,3.238219e+002
2.225663e+003,3.227381e+002
2.227592e+003,3.256185e+002
2.229520e+003,3.300275e+002
2.231448e+003,3.290271e+002
2.233377e+003,3.231549e+002
2.235305e+003,3.158962e+002
2.237234e+003,3.072778e+002
2.239162e+003,3.073097e+002
2.241091e+003,3.194001e+002
2.243019e+003,3.255365e+002
2.244948e+003,3.176588e+002
2.246876e+003,3.146439e+002
2.248805e+003,3.271765e+002
2.250733e+003,3.369662e+002
2.252662e+003,3.350165e+002
2.254590e+003,3.304366e+002
2.256519e+003,3.288027e+002
2.258447e+003,3.275992e+002
2.260375e+003,3.244629e+002
2.262304e+003,3.201308e+002
2.264232e+003,3.142855e+002
2.266161e+003,3.084959e+002
2.268089e+003,3.079388e+002
2.270018e+003,3.121515e+002
2.271946e+003,3.178865e+002
2.273875e+003,3.255416e+002
2.275803e+003,3.285209e+002
2.277732e+003,3.241510e+002
2.279660e+003,3.204553e+002
2.281589e+003,3.165982e+002
2.283517e+003,3.160789e+002
2.285446e+003,3.220546e+002
2.287374e+003,3.278114e+002
2.289302e+003,3.318198e+002
2.291231e+003,3.340876e+002
2.293159e+003,3.323976e+002
2.295088e+003,3.310703e+002
2.297016e+003,3.356216e+002
2.298945e+003,3.414036e+002
2.300873e+003,3.406512e+002
2.302802e+003,3.367125e+002
2.304730e+003,3.388716e+002
2.306659e+003,3.460090e+002
2.308587e+003,3.488752e+002
2.310516e+003,3.467701e+002
2.312444e+003,3.460288e+002
2.314373e+003,3.467270e+002
2.316301e+003,3.491190e+002
2.318229e+003,3.548480e+002
2.320158e+003,3.552457e+002
2.322086e+003,3.454889e+002
2.324015e+003,3.387469e+002
2.325943e+003,3.414923e+002
2.327872e+003,3.446665e+002
2.329800e+003,3.422501e+002
2.331729e+003,3.425149e+002
2.333657e+003,3.538219e+002
2.335586e+003,3.659034e+002
2.337514e+003,3.705618e+002
2.339443e+003,3.702018e+002
2.341371e+003,3.669619e+002
2.343300e+003,3.614094e+002
2.345228e+003,3.516508e+002
2.347156e+003,3.411965e+002
2.349085e+003,3.430403e+002
2.351013e+003,3.562263e+002
2.352942e+003,3.643542e+002
2.354870e+003,3.669904e+002
2.356799e+003,3.680045e+002
2.358727e+003,3.670782e+002
2.360656e+003,3.654057e+002
2.362584e+003,3.623609e+002
2.364513e+003,3.602818e+002
2.366441e+003,3.600903e+002
2.368370e+003,3.588139e+002
2.370298e+003,3.525771e+002
2.372227e+003,3.508456e+002
2.374155e+003,3.632130e+002
2.376083e+003,3.733071e+002
2.378012e+003,3.692920e+002
2.379940e+003,3.642147e+002
2.381869e+003,3.700068e+002
2.383797e+003,3.770094e+002
2.385726e+003,3.733166e+002
2.387654e+003,3.665423e+002
2.389583e+003,3.684367e+002
2.391511e+003,3.748807e+002
2.393440e+003,3.783728e+002
2.395368e+003,3.791254e+002
2.397297e+003,3.772022e+002
2.399225e+003,3.729557e+002
2.401154e+003,3.715215e+002
2.403082e+003,3.728462e+002
2.405010e+003,3.776387e+002
2.406939e+003,3.872747e+002
2.408867e+003,3.928692e+002
2.410796e+003,3.926779e+002
2.412724e+003,3.959283e+002
2.414653e+003,4.056625e+002
2.416581e+003,4.127610e+002
2.418510e+003,4.120026e+002
2.420438e+003,4.140052e+002
2.422367e+003,4.234622e+002
2.424295e+003,4.329395e+002
2.426224e+003,4.429745e+002
2.428152e+003,4.481378e+002
2.430081e+003,4.423584e+002
2.432009e+003,4.359596e+002
2.433938e+003,4.360802e+002
2.435866e+003,4.370125e+002
2.437794e+003,4.351759e+002
2.439723e+003,4.308338e+002
2.441651e+003,4.221502e+002
2.443580e+003,4.124330e+002
2.445508e+003,4.060048e+002
2.447437e+003,4.027139e+002
2.449365e+003,4.039775e+002
2.451294e+003,4.079817e+002
2.453222e+003,4.087900e+002
2.455151e+003,4.064236e+002
2.457079e+003,3.988908e+002
2.459008e+003,3.871875e+002
2.460936e+003,3.829657e+002
2.462865e+003,3.882601e+002
2.464793e+003,3.872623e+002
2.466721e+003,3.762204e+002
2.468650e+003,3.704740e+002
2.470578e+003,3.699851e+002
2.472507e+003,3.752498e+002
2.474435e+003,3.883910e+002
2.476364e+003,3.979268e+002
2.478292e+003,4.022987e+002
2.480221e+003,4.010914e+002
2.482149e+003,3.865924e+002
2.484078e+003,3.793385e+002
2.486006e+003,3.893638e+002
2.487935e+003,3.992944e+002
2.489863e+003,4.072040e+002
2.491792e+003,4.089171e+002
2.493720e+003,3.983083e+002
2.495648e+003,3.879604e+002
2.497577e+003,3.854678e+002
2.499505e+003,3.845144e+002
2.501434e+003,3.816269e+002
2.503362e+003,3.779284e+002
2.505291e+003,3.711091e+002
2.507219e+003,3.674787e+002
2.509148e+003,3.789542e+002
2.511076e+003,3.925691e+002
2.513005e+003,3.884898e+002
2.514933e+003,3.790062e+002
2.516862e+003,3.834276e+002
2.518790e+003,3.941936e+002
2.520719e+003,3.966392e+002
2.522647e+003,3.943835e+002
2.524575e+003,3.985717e+002
2.526504e+003,4.065028e+002
2.528432e+003,4.059976e+002
2.530361e+003,3.987070e+002
2.532289e+003,3.933940e+002
2.534218e+003,3.901312e+002
2.536146e+003,3.887981e+002
2.538075e+003,3.893864e+002
2.540003e+003,3.925365e+002
2.541932e+003,3.990392e+002
2.543860e+003,4.014328e+002
2.545789e+003,3.995932e+002
2.547717e+003,3.943418e+002
2.549646e+003,3.850847e+002
2.551574e+003,3.800180e+002
2.553502e+003,3.804354e+002
2.555431e+003,3.810497e+002
2.557359e+003,3.804573e+002
2.559288e+003,3.817483e+002
2.561216e+003,3.853694e+002
2.563145e+003,3.904031e+002
2.565073e+003,3.966960e+002
2.567002e+003,4.050128e+002
2.568930e+003,4.171878e+002
2.570859e+003,4.261417e+002
2.572787e+003,4.287526e+002
2.574716e+003,4.310496e+002
2.576644e+003,4.368803e+002
2.578573e+003,4.389149e+002
2.580501e+003,4.337563e+002
2.582429e+003,4.265988e+002
2.584358e+003,4.188868e+002
2.586287e+003,4.089513e+002
2.588215e+003,3.902856e+002
2.590144e+003,3.797865e+002
2.592072e+003,3.940279e+002
2.594000e+003,4.060061e+002
2.595929e+003,4.002256e+002
2.597857e+003,3.919169e+002
2.599786e+003,3.858917e+002
2.601714e+003,3.839630e+002
2.603643e+003,3.904455e+002
2.605571e+003,3.964140e+002
2.607500e+003,3.932154e+002
2.609428e+003,3.906115e+002
2.611357e+003,3.989759e+002
2.613285e+003,4.073219e+002
2.615214e+003,4.066224e+002
2.617142e+003,4.019507e+002
2.619071e+003,3.933559e+002
2.620999e+003,3.875669e+002
2.622927e+003,3.938913e+002
2.624856e+003,4.021886e+002
2.626784e+003,4.018675e+002
2.628713e+003,3.983100e+002
2.630641e+003,3.972158e+002
2.632570e+003,3.968317e+002
2.634498e+003,3.939430e+002
2.636427e+003,3.915072e+002
2.638355e+003,3.949256e+002
2.640284e+003,3.992896e+002
2.642212e+003,3.965971e+002
2.644141e+003,3.919308e+002
2.646069e+003,3.927410e+002
2.647998e+003,3.967931e+002
2.649926e+003,4.031036e+002
2.651854e+003,4.082016e+002
2.653783e+003,4.023584e+002
2.655711e+003,3.943504e+002
2.657640e+003,4.020395e+002
2.659568e+003,4.150801e+002
2.661497e+003,4.111301e+002
2.663425e+003,4.001103e+002
2.665354e+003,4.044511e+002
2.667282e+003,4.155518e+002
2.669211e+003,4.156003e+002
2.671139e+003,4.082647e+002
2.673068e+003,3.955119e+002
2.674996e+003,3.841085e+002
2.676925e+003,3.941731e+002
2.678853e+003,4.145970e+002
2.680781e+003,4.173711e+002
2.682710e+003,4.101379e+002
2.684638e+003,4.126084e+002
2.686567e+003,4.188956e+002
2.688495e+003,4.148072e+002
2.690424e+003,4.053941e+002
2.692352e+003,4.016725e+002
2.694281e+003,4.027453e+002
2.696209e+003,4.093879e+002
2.698138e+003,4.175652e+002
2.700066e+003,4.145732e+002
2.701995e+003,4.058813e+002
2.703923e+003,4.034630e+002
2.705852e+003,4.050401e+002
2.707780e+003,4.048228e+002
2.709708e+003,4.044196e+002
2.711637e+003,4.095610e+002
2.713565e+003,4.171267e+002
2.715494e+003,4.203293e+002
2.717422e+003,4.202168e+002
2.719351e+003,4.177247e+002
2.721279e+003,4.144637e+002
2.723208e+003,4.144194e+002
2.725136e+003,4.157964e+002
2.727065e+003,4.127748e+002
2.728993e+003,4.092170e+002
2.730922e+003,4.162827e+002
2.732850e+003,4.256601e+002
2.734779e+003,4.176110e+002
2.736707e+003,4.051574e+002
2.738635e+003,4.174630e+002
2.740564e+003,4.390248e+002
2.742492e+003,4.441716e+002
2.744421e+003,4.384420e+002
2.746349e+003,4.264696e+002
2.748278e+003,4.132549e+002
2.750206e+003,4.048875e+002
2.752135e+003,4.008529e+002
2.754063e+003,4.022407e+002
2.755992e+003,4.056956e+002
2.757920e+003,4.072540e+002
2.759849e+003,4.079283e+002
2.761777e+003,4.087545e+002
2.763706e+003,4.097654e+002
2.765634e+003,4.116697e+002
2.767563e+003,4.132228e+002
2.769491e+003,4.103268e+002
2.771419e+003,4.093813e+002
2.773348e+003,4.187428e+002
2.775276e+003,4.294645e+002
2.777205e+003,4.361096e+002
2.779133e+003,4.374745e+002
2.781062e+003,4.274657e+002
2.782990e+003,4.178676e+002
2.784919e+003,4.204569e+002
2.786847e+003,4.232133e+002
2.788776e+003,4.180002e+002
2.790704e+003,4.113593e+002
2.792633e+003,4.074964e+002
2.794561e+003,4.036925e+002
2.796490e+003,3.947963e+002
2.798418e+003,3.917653e+002
2.800346e+003,4.042874e+002
2.802275e+003,4.146974e+002
2.804203e+003,4.109940e+002
2.806132e+003,4.085365e+002
2.808060e+003,4.134555e+002
2.809989e+003,4.204299e+002
2.811917e+003,4.301666e+002
2.813846e+003,4.360871e+002
2.815774e+003,4.353974e+002
2.817703e+003,4.325529e+002
2.819631e+003,4.255786e+002
2.821560e+003,4.232516e+002
2.823488e+003,4.300108e+002
2.825417e+003,4.341669e+002
2.827345e+003,4.326734e+002
2.829273e+003,4.351722e+002
2.831202e+003,4.443224e+002
2.833130e+003,4.551194e+002
2.835059e+003,4.674813e+002
2.836987e+003,4.798512e+002
2.838916e+003,4.922483e+002
2.840844e+003,5.023333e+002
2.842773e+003,5.095579e+002
2.844701e+003,5.170795e+002
2.846630e+003,5.241971e+002
2.848558e+003,5.415685e+002
2.850487e+003,5.704178e+002
2.852415e+003,5.822264e+002
2.854344e+003,5.786489e+002
2.856272e+003,5.781552e+002
2.858200e+003,5.808897e+002
2.860129e+003,5.838923e+002
2.862057e+003,5.859165e+002
2.863986e+003,5.781630e+002
2.865914e+003,5.637608e+002
2.867843e+003,5.547861e+002
2.869771e+003,5.464771e+002
2.871700e+003,5.219103e+002
2.873628e+003,4.943092e+002
2.875557e+003,4.937566e+002
2.877485e+003,5.036989e+002
2.879414e+003,4.976260e+002
2.881342e+003,4.882262e+002
2.883271e+003,4.871696e+002
2.885199e+003,4.929974e+002
2.887127e+003,5.091650e+002
2.889056e+003,5.254109e+002
2.890984e+003,5.310710e+002
2.892913e+003,5.369415e+002
2.894841e+003,5.472959e+002
2.896770e+003,5.631219e+002
2.898698e+003,5.849509e+002
2.900627e+003,6.122994e+002
2.902555e+003,6.454419e+002
2.904484e+003,6.821939e+002
2.906412e+003,7.166761e+002
2.908341e+003,7.677059e+002
2.910269e+003,8.362071e+002
2.912198e+003,9.331713e+002
2.914126e+003,1.063950e+003
2.916054e+003,1.212151e+003
2.917983e+003,1.385178e+003
2.919911e+003,1.512025e+003
2.921840e+003,1.586610e+003
2.923768e+003,1.586668e+003
2.925697e+003,1.507197e+003
2.927625e+003,1.393437e+003
2.929554e+003,1.253448e+003
2.931482e+003,1.172004e+003
2.933411e+003,1.144652e+003
2.935339e+003,1.121638e+003
2.937268e+003,1.102536e+003
2.939196e+003,1.084561e+003
2.941125e+003,1.070924e+003
2.943053e+003,1.073689e+003
2.944981e+003,1.082523e+003
2.946910e+003,1.090510e+003
2.948838e+003,1.084691e+003
2.950767e+003,1.035621e+003
2.952695e+003,9.792396e+002
2.954624e+003,9.296526e+002
2.956552e+003,9.088824e+002
2.958481e+003,9.498016e+002
2.960409e+003,9.995474e+002
2.962338e+003,1.050651e+003
2.964266e+003,1.066122e+003
2.966195e+003,1.021874e+003
2.968123e+003,9.660778e+002
2.970052e+003,8.985078e+002
2.971980e+003,8.545138e+002
2.973908e+003,8.461051e+002
2.975837e+003,8.304344e+002
2.977765e+003,8.002888e+002
2.979694e+003,7.811716e+002
2.981622e+003,7.808715e+002
2.983551e+003,7.630325e+002
2.985479e+003,7.274039e+002
2.987408e+003,6.881034e+002
2.989336e+003,6.479598e+002
2.991265e+003,6.189338e+002
2.993193e+003,6.009684e+002
2.995122e+003,5.961378e+002
2.997050e+003,6.008427e+002
2.998979e+003,6.078201e+002
3.000907e+003,6.191136e+002
3.002835e+003,6.437732e+002
3.004764e+003,6.657852e+002
3.006692e+003,6.694904e+002
3.008621e+003,6.626938e+002
3.010549e+003,6.396664e+002
3.012478e+003,6.273790e+002
3.014406e+003,6.459875e+002
3.016335e+003,6.673895e+002
3.018263e+003,6.800226e+002
3.020192e+003,6.989490e+002
3.022120e+003,7.256223e+002
3.024049e+003,7.616191e+002
3.025977e+003,8.060634e+002
3.027906e+003,8.675006e+002
3.029834e+003,9.489346e+002
3.031762e+003,1.026403e+003
3.033691e+003,1.096779e+003
3.035619e+003,1.132227e+003
3.037548e+003,1.138467e+003
3.039476e+003,1.131255e+003
3.041405e+003,1.121756e+003
3.043333e+003,1.115524e+003
3.045262e+003,1.148942e+003
3.047190e+003,1.238918e+003
3.049119e+003,1.428187e+003
3.051047e+003,1.812291e+003
3.052976e+003,2.240742e+003
3.054904e+003,2.687248e+003
3.056833e+003,3.012495e+003
3.058761e+003,3.115147e+003
3.060689e+003,3.153286e+003
3.062618e+003,3.182782e+003
3.064546e+003,3.129682e+003
3.066475e+003,2.991904e+003
3.068403e+003,2.727727e+003
3.070332e+003,2.295900e+003
3.072260e+003,1.896598e+003
3.074189e+003,1.529678e+003
3.076117e+003,1.249092e+003
3.078046e+003,1.049409e+003
3.079974e+003,9.091069e+002
3.081903e+003,8.138118e+002
3.083831e+003,7.430693e+002
3.085760e+003,6.888013e+002
3.087688e+003,6.401854e+002
3.089616e+003,6.023293e+002
3.091545e+003,5.842681e+002
3.093473e+003,5.714992e+002
3.095402e+003,5.563253e+002
3.097330e+003,5.432792e+002
3.099259e+003,5.334960e+002
3.101187e+003,5.258945e+002
3.103116e+003,5.212681e+002
3.105044e+003,5.168083e+002
3.106973e+003,5.129535e+002
3.108901e+003,5.014415e+002
3.110830e+003,4.831870e+002
3.112758e+003,4.819777e+002
3.114687e+003,4.927527e+002
3.116615e+003,4.886907e+002
3.118543e+003,4.768476e+002
3.120472e+003,4.702483e+002
3.122400e+003,4.666130e+002
3.124329e+003,4.657321e+002
3.126257e+003,4.634733e+002
3.128186e+003,4.553978e+002
3.130114e+003,4.484145e+002
3.132043e+003,4.476321e+002
3.133971e+003,4.455019e+002
3.135900e+003,4.372198e+002
3.137828e+003,4.360214e+002
3.139757e+003,4.439713e+002
3.141685e+003,4.482840e+002
3.143614e+003,4.471936e+002
3.145542e+003,4.496244e+002
3.147470e+003,4.543426e+002
3.149399e+003,4.517738e+002
3.151327e+003,4.465979e+002
3.153256e+003,4.485415e+002
3.155184e+003,4.533140e+002
3.157113e+003,4.559396e+002
3.159041e+003,4.579463e+002
3.160970e+003,4.582296e+002
3.162898e+003,4.613117e+002
3.164827e+003,4.735618e+002
3.166755e+003,4.811125e+002
3.168684e+003,4.839611e+002
3.170612e+003,4.697107e+002
3.172541e+003,4.322455e+002
3.174469e+003,4.165250e+002
3.176397e+003,4.229662e+002
3.178326e+003,4.180115e+002
3.180254e+003,4.066053e+002
3.182183e+003,4.021410e+002
3.184111e+003,4.030394e+002
3.186040e+003,4.119130e+002
3.187968e+003,4.180897e+002
3.189897e+003,4.088199e+002
3.191825e+003,4.012065e+002
3.193754e+003,4.052452e+002
3.195682e+003,4.120492e+002
3.197611e+003,4.219319e+002
3.199539e+003,4.245779e+002
3.201468e+003,4.173932e+002
3.203396e+003,4.089528e+002
3.205324e+003,3.997285e+002
3.207253e+003,4.092390e+002
3.209181e+003,4.239547e+002
3.211110e+003,3.934306e+002
3.213038e+003,3.518402e+002
3.214967e+003,3.547228e+002
3.216895e+003,3.699084e+002
3.218824e+003,3.768947e+002
3.220752e+003,3.776899e+002
3.222681e+003,3.697043e+002
3.224609e+003,3.613806e+002
3.226538e+003,3.519301e+002
3.228466e+003,3.556030e+002
3.230395e+003,3.763340e+002
3.232323e+003,3.764991e+002
3.234251e+003,3.587925e+002
3.236180e+003,3.607324e+002
3.238108e+003,3.709652e+002
3.240037e+003,3.644409e+002
3.241965e+003,3.536143e+002
3.243894e+003,3.542653e+002
3.245822e+003,3.544717e+002
3.247751e+003,3.439940e+002
3.249679e+003,3.390107e+002
3.251608e+003,3.545471e+002
3.253536e+003,3.535637e+002
3.255465e+003,3.308477e+002
3.257393e+003,3.250562e+002
3.259322e+003,3.376241e+002
3.261250e+003,3.404324e+002
3.263178e+003,3.372175e+002
3.265107e+003,3.388015e+002
3.267035e+003,3.427435e+002
3.268964e+003,3.486160e+002
3.270892e+003,3.517913e+002
3.272821e+003,3.458776e+002
3.274749e+003,3.434524e+002
3.276678e+003,3.513008e+002
3.278606e+003,3.550801e+002
3.280535e+003,3.521291e+002
3.282463e+003,3.485939e+002
3.284392e+003,3.447933e+002
3.286320e+003,3.414202e+002
3.288249e+003,3.391854e+002
3.290177e+003,3.424709e+002
3.292105e+003,3.452995e+002
3.294034e+003,3.376243e+002
3.295962e+003,3.327279e+002
3.297891e+003,3.447934e+002
3.299819e+003,3.495487e+002
3.301748e+003,3.393417e+002
3.303676e+003,3.322885e+002
3.305605e+003,3.310315e+002
3.307533e+003,3.379001e+002
3.309462e+003,3.502596e+002
3.311390e+003,3.504019e+002
3.313319e+003,3.445991e+002
3.315247e+003,3.445305e+002
3.317176e+003,3.432570e+002
3.319104e+003,3.301307e+002
3.321032e+003,3.228031e+002
3.322961e+003,3.352531e+002
3.324889e+003,3.425088e+002
3.326818e+003,3.404170e+002
3.328746e+003,3.403529e+002
3.330675e+003,3.428060e+002
3.332603e+003,3.435325e+002
3.334532e+003,3.420426e+002
3.336460e+003,3.352395e+002
3.338389e+003,3.278317e+002
3.340317e+003,3.229614e+002
3.342246e+003,3.230512e+002
3.344174e+003,3.345939e+002
3.346103e+003,3.385837e+002
3.348031e+003,3.277656e+002
3.349959e+003,3.244204e+002
3.351888e+003,3.308177e+002
3.353816e+003,3.317151e+002
3.355745e+003,3.293389e+002
3.357673e+003,3.305414e+002
3.359602e+003,3.332542e+002
3.361530e+003,3.367170e+002
3.363459e+003,3.371760e+002
3.365387e+003,3.279915e+002
3.367316e+003,3.246655e+002
3.369244e+003,3.336067e+002
3.371173e+003,3.397989e+002
3.373101e+003,3.422151e+002
3.375030e+003,3.409928e+002
3.376958e+003,3.369521e+002
3.378886e+003,3.307862e+002
3.380815e+003,3.252672e+002
3.382743e+003,3.243311e+002
3.384672e+003,3.240383e+002
3.386600e+003,3.202469e+002
3.388529e+003,3.213127e+002
3.390457e+003,3.308586e+002
3.392386e+003,3.329055e+002
3.394314e+003,3.261360e+002
3.396243e+003,3.269104e+002
3.398171e+003,3.318742e+002
3.400100e+003,3.341914e+002
3.402028e+003,3.336941e+002
3.403957e+003,3.276968e+002
3.405885e+003,3.231456e+002
3.407813e+003,3.216834e+002
3.409742e+003,3.267196e+002
3.411670e+003,3.407386e+002
3.413599e+003,3.483760e+002
3.415527e+003,3.492781e+002
3.417456e+003,3.451414e+002
3.419384e+003,3.390278e+002
3.421313e+003,3.363487e+002
3.423241e+003,3.352824e+002
3.425170e+003,3.368360e+002
3.427098e+003,3.347539e+002
3.429027e+003,3.250193e+002
3.430955e+003,3.216494e+002
3.432884e+003,3.263646e+002
3.434812e+003,3.280891e+002
3.436740e+003,3.267683e+002
3.438669e+003,3.196950e+002
3.440597e+003,3.143076e+002
3.442526e+003,3.240756e+002
3.444454e+003,3.288541e+002
3.446383e+003,3.156703e+002
3.448311e+003,3.103310e+002
3.450240e+003,3.208763e+002
3.452168e+003,3.275615e+002
3.454097e+003,3.307820e+002
3.456025e+003,3.375943e+002
3.457954e+003,3.432120e+002
3.459882e+003,3.407608e+002
3.461811e+003,3.325482e+002
3.463739e+003,3.143976e+002
3.465667e+003,3.074294e+002
3.467596e+003,3.263024e+002
3.469524e+003,3.346450e+002
3.471453e+003,3.328766e+002
3.473381e+003,3.271111e+002
3.475310e+003,3.212795e+002
3.477238e+003,3.253625e+002
3.479167e+003,3.297650e+002
3.481095e+003,3.258844e+002
3.483024e+003,3.234848e+002
3.484952e+003,3.271543e+002
3.486881e+003,3.234686e+002
3.488809e+003,3.127085e+002
3.490738e+003,3.165937e+002
3.492666e+003,3.287811e+002
3.494594e+003,3.371297e+002
3.496523e+003,3.391875e+002
3.498451e+003,3.277282e+002
3.500380e+003,3.193005e+002
3.502308e+003,3.182860e+002
3.504237e+003,3.207019e+002
3.506165e+003,3.260209e+002
3.508094e+003,3.304124e+002
3.510022e+003,3.327487e+002
3.511951e+003,3.298535e+002
3.513879e+003,3.247780e+002
3.515808e+003,3.175180e+002
3.517736e+003,3.145502e+002
3.519665e+003,3.188208e+002
3.521593e+003,3.208619e+002
3.523521e+003,3.197949e+002
3.525450e+003,3.200055e+002
3.527378e+003,3.220084e+002
3.529307e+003,3.298626e+002
3.531235e+003,3.345834e+002
3.533164e+003,3.272563e+002
3.535092e+003,3.198943e+002
3.537021e+003,3.145150e+002
3.538949e+003,3.173130e+002
3.540878e+003,3.268073e+002
3.542806e+003,3.280991e+002
3.544735e+003,3.244492e+002
3.546663e+003,3.177319e+002
3.548592e+003,3.139458e+002
3.550520e+003,3.173537e+002
3.552448e+003,3.212823e+002
3.554377e+003,3.241504e+002
3.556305e+003,3.284364e+002
3.558234e+003,3.330320e+002
3.560162e+003,3.344607e+002
3.562091e+003,3.317242e+002
3.564019e+003,3.180822e+002
3.565948e+003,3.099819e+002
3.567876e+003,3.204563e+002
3.569805e+003,3.255125e+002
3.571733e+003,3.233727e+002
3.573662e+003,3.190968e+002
3.575590e+003,3.160782e+002
3.577519e+003,3.287321e+002
3.579447e+003,3.381726e+002
3.581376e+003,3.232234e+002
3.583304e+003,3.130072e+002
3.585233e+003,3.152364e+002
3.587161e+003,3.256411e+002
3.589090e+003,3.409343e+002
3.591018e+003,3.364338e+002
3.592947e+003,3.241760e+002
3.594875e+003,3.223265e+002
3.596803e+003,3.223133e+002
3.598732e+003,3.201487e+002
3.600660e+003,3.163322e+002
3.602589e+003,3.109688e+002
3.604517e+003,3.270341e+002
3.606446e+003,3.479220e+002
3.608374e+003,3.042211e+002
3.610303e+003,2.617828e+002
3.612231e+003,2.838885e+002
3.614160e+003,3.076471e+002
3.616088e+003,3.193717e+002
3.618017e+003,3.200737e+002
3.619945e+003,3.124742e+002
3.621874e+003,3.120674e+002
3.623802e+003,3.163450e+002
3.625730e+003,3.241098e+002
3.627659e+003,3.304376e+002
3.629587e+003,3.340478e+002
3.631516e+003,3.317462e+002
3.633444e+003,3.229608e+002
3.635373e+003,3.144671e+002
3.637301e+003,3.084832e+002
3.639230e+003,3.102960e+002
3.641158e+003,3.149521e+002
3.643087e+003,3.232885e+002
3.645015e+003,3.239334e+002
3.646944e+003,3.146924e+002
3.648872e+003,3.139049e+002
3.650801e+003,3.177074e+002
3.652729e+003,3.070189e+002
3.654657e+003,2.981737e+002
3.656586e+003,3.082544e+002
3.658514e+003,3.176631e+002
3.660443e+003,3.223318e+002
3.662371e+003,3.245719e+002
3.664300e+003,3.246111e+002
3.666228e+003,3.173909e+002
3.668157e+003,3.127255e+002
3.670085e+003,3.265500e+002
3.672014e+003,3.337010e+002
3.673942e+003,3.261093e+002
3.675871e+003,3.203616e+002
3.677799e+003,3.179777e+002
3.679728e+003,3.203064e+002
3.681656e+003,3.227793e+002
3.683584e+003,3.184467e+002
3.685513e+003,3.153229e+002
3.687441e+003,3.159458e+002
3.689370e+003,3.208422e+002
3.691298e+003,3.287342e+002
3.693227e+003,3.226122e+002
3.695155e+003,3.116736e+002
3.697084e+003,3.075332e+002
3.699012e+003,3.049979e+002
3.700941e+003,2.999891e+002
3.702869e+003,3.091048e+002
3.704798e+003,3.317653e+002
3.706726e+003,3.252494e+002
3.708655e+003,3.112464e+002
3.710583e+003,3.254456e+002
3.712511e+003,3.343274e+002
3.714440e+003,3.205091e+002
3.716368e+003,3.124902e+002
3.718297e+003,3.130544e+002
3.720225e+003,3.157310e+002
3.722154e+003,3.192488e+002
3.724082e+003,3.221123e+002
3.726011e+003,3.246083e+002
3.727939e+003,3.275400e+002
3.729868e+003,3.270116e+002
3.731796e+003,3.229454e+002
3.733725e+003,3.188297e+002
3.735653e+003,3.149515e+002
3.737582e+003,3.099573e+002
3.739510e+003,3.090338e+002
3.741438e+003,3.164674e+002
3.743367e+003,3.147385e+002
3.745295e+003,3.055365e+002
3.747224e+003,3.134341e+002
3.749152e+003,3.238574e+002
3.751081e+003,3.179091e+002
3.753009e+003,3.141741e+002
3.754938e+003,3.196353e+002
3.756866e+003,3.197546e+002
3.758795e+003,3.148833e+002
3.760723e+003,3.095826e+002
3.762652e+003,3.060779e+002
3.764580e+003,3.068861e+002
3.766509e+003,3.085523e+002
3.768437e+003,3.102626e+002
3.770365e+003,3.132192e+002
3.772294e+003,3.164058e+002
3.774222e+003,3.165053e+002
3.776151e+003,3.155225e+002
3.778079e+003,3.161807e+002
3.780008e+003,3.115672e+002
3.781936e+003,3.005858e+002
3.783865e+003,3.015611e+002
3.785793e+003,3.079002e+002
3.787722e+003,3.037904e+002
3.789650e+003,3.023307e+002
3.791579e+003,3.150685e+002
3.793507e+003,3.122225e+002
3.795436e+003,2.942072e+002
3.797364e+003,3.014874e+002
3.799292e+003,3.165124e+002
3.801221e+003,3.168964e+002
3.803149e+003,3.130613e+002
3.805078e+003,3.072197e+002
3.807006e+003,3.017155e+002
3.808935e+003,2.982647e+002
3.810863e+003,3.079526e+002
3.812792e+003,3.156833e+002
3.814720e+003,3.050956e+002
3.816649e+003,2.960961e+002
3.818577e+003,2.925071e+002
3.820506e+003,2.991385e+002
3.822434e+003,3.097734e+002
3.824363e+003,3.121354e+002
3.826291e+003,3.105736e+002
3.828219e+003,3.048427e+002
3.830148e+003,3.101286e+002
3.832076e+003,3.261341e+002
3.834005e+003,3.285635e+002
3.835933e+003,3.215995e+002
3.837862e+003,3.046317e+002
3.839790e+003,2.927371e+002
3.841719e+003,2.890716e+002
3.843647e+003,2.990326e+002
3.845576e+003,3.133420e+002
3.847504e+003,2.981436e+002
3.849433e+003,2.832982e+002
3.851361e+003,2.925732e+002
3.853290e+003,2.956672e+002
3.855218e+003,2.910817e+002
3.857146e+003,2.960260e+002
3.859075e+003,3.050318e+002
3.861003e+003,3.138145e+002
3.862932e+003,3.145696e+002
3.864860e+003,3.005973e+002
3.866789e+003,2.994042e+002
3.868717e+003,3.060522e+002
3.870646e+003,3.013333e+002
3.872574e+003,2.977042e+002
3.874503e+003,3.036498e+002
3.876431e+003,3.090751e+002
3.878360e+003,3.126206e+002
3.880288e+003,3.156320e+002
3.882217e+003,3.151137e+002
3.884145e+003,3.028409e+002
3.886073e+003,2.940528e+002
3.888002e+003,2.928878e+002
3.889930e+003,3.020007e+002
3.891859e+003,3.137043e+002
3.893787e+003,3.043903e+002
3.895716e+003,2.979977e+002
3.897644e+003,3.094854e+002
3.899573e+003,3.142146e+002
3.901501e+003,3.108885e+002
3.903430e+003,3.134914e+002
3.905358e+003,3.165974e+002
3.907287e+003,3.156461e+002
3.909215e+003,3.114178e+002
3.911144e+003,3.042491e+002
3.913072e+003,2.968708e+002
3.915000e+003,2.911884e+002
3.916929e+003,2.901275e+002
3.918857e+003,2.929225e+002
3.920786e+003,3.017572e+002
3.922714e+003,3.038031e+002
3.924643e+003,3.005512e+002
3.926571e+003,2.972115e+002
3.928500e+003,2.949398e+002
3.930428e+003,2.944780e+002
3.932357e+003,2.949959e+002
3.934285e+003,2.962276e+002
3.936214e+003,2.959518e+002
3.938142e+003,2.969403e+002
3.940071e+003,3.053168e+002
3.941999e+003,3.063020e+002
3.943927e+003,2.955960e+002
3.945856e+003,2.923087e+002
3.947784e+003,2.937614e+002
3.949713e+003,2.986613e+002
3.951641e+003,2.988034e+002
3.953570e+003,2.912875e+002
3.955498e+003,2.964955e+002
3.957427e+003,3.074356e+002
3.959355e+003,3.012025e+002
3.961284e+003,2.959285e+002
3.963212e+003,3.031274e+002
3.965141e+003,3.046775e+002
3.967069e+003,3.006938e+002
3.968998e+003,2.918909e+002
3.970926e+003,2.900211e+002
3.972854e+003,3.112965e+002
3.974783e+003,3.095203e+002
3.976711e+003,2.863116e+002
3.978640e+003,2.877483e+002
3.980568e+003,2.961994e+002
3.982497e+003,2.946248e+002
3.984425e+003,2.966480e+002
3.986354e+003,3.051088e+002
3.988282e+003,2.968540e+002
3.990211e+003,2.857627e+002
3.992139e+003,2.913900e+002
3.994068e+003,2.953726e+002
3.995996e+003,2.935601e+002
3.997925e+003,2.924659e+002
3.999853e+003,2.931416e+002
4.001781e+003,2.988658e+002
4.003710e+003,3.021569e+002
4.005638e+003,3.008416e+002
4.007567e+003,2.961875e+002
4.009495e+003,2.920612e+002
4.011424e+003,3.016292e+002
4.013352e+003,3.049919e+002
4.015281e+003,2.882410e+002
4.017209e+003,2.757968e+002
4.019138e+003,2.715745e+002
4.021066e+003,2.900482e+002
4.022995e+003,3.041968e+002
4.024923e+003,3.014492e+002
4.026852e+003,2.996770e+002
4.028780e+003,2.979841e+002
4.030708e+003,2.818809e+002
4.032637e+003,2.728909e+002
4.034565e+003,2.858569e+002
4.036494e+003,2.923364e+002
4.038422e+003,2.913105e+002
4.040351e+003,2.861247e+002
4.042279e+003,2.827326e+002
4.044208e+003,2.871932e+002
4.046136e+003,2.882979e+002
4.048065e+003,2.858497e+002
4.049993e+003,2.792906e+002
4.051922e+003,2.773876e+002
4.053850e+003,2.877011e+002
4.055779e+003,2.910845e+002
4.057707e+003,2.872623e+002
4.059635e+003,2.816944e+002
4.061564e+003,2.786608e+002
4.063492e+003,2.822848e+002
4.065421e+003,2.815160e+002
4.067349e+003,2.770292e+002
4.069278e+003,2.804029e+002
4.071206e+003,2.850011e+002
4.073135e+003,2.857810e+002
4.075063e+003,2.889152e+002
4.076992e+003,2.927516e+002
4.078920e+003,2.868426e+002
4.080849e+003,2.791710e+002
4.082777e+003,2.746313e+002
4.084706e+003,2.706367e+002
4.086634e+003,2.672265e+002
4.088563e+003,2.652877e+002
4.090491e+003,2.652511e+002
4.092419e+003,2.673743e+002
4.094348e+003,2.714260e+002
4.096276e+003,2.767216e+002
4.098205e+003,2.846396e+002
4.100133e+003,2.844167e+002
4.102062e+003,2.641075e+002
4.103990e+003,2.641877e+002
4.105919e+003,2.794688e+002
4.107847e+003,2.899386e+002
4.109776e+003,2.916432e+002
4.111704e+003,2.750424e+002
4.113633e+003,2.741330e+002
4.115561e+003,2.809902e+002
4.117490e+003,2.731667e+002
4.119418e+003,2.670053e+002
4.121347e+003,2.689126e+002
4.123275e+003,2.754306e+002
4.125204e+003,2.823190e+002
4.127132e+003,2.809076e+002
4.129061e+003,2.798055e+002
4.130989e+003,2.815056e+002
4.132917e+003,2.793820e+002
4.134846e+003,2.756188e+002
4.136774e+003,2.735677e+002
4.138703e+003,2.724483e+002
4.140631e+003,2.720395e+002
4.142560e+003,2.721240e+002
4.144488e+003,2.728680e+002
4.146417e+003,2.752679e+002
4.148345e+003,2.765143e+002
4.150273e+003,2.762953e+002
4.152202e+003,2.769037e+002
4.154130e+003,2.779788e+002
4.156059e+003,2.811996e+002
4.157987e+003,2.771351e+002
4.159916e+003,2.674698e+002
4.161844e+003,2.690488e+002
4.163773e+003,2.718644e+002
4.165701e+003,2.684159e+002
4.167630e+003,2.676974e+002
4.169558e+003,2.685641e+002
4.171487e+003,2.636868e+002
4.173415e+003,2.639710e+002
4.175344e+003,2.747899e+002
4.177272e+003,2.779642e+002
4.179201e+003,2.752799e+002
4.181129e+003,2.681440e+002
4.183058e+003,2.697160e+002
4.184986e+003,2.824184e+002
4.186915e+003,2.827740e+002
4.188843e+003,2.780051e+002
4.190771e+003,2.779114e+002
4.192700e+003,2.741638e+002
4.194628e+003,2.663542e+002
4.196557e+003,2.698249e+002
4.198485e+003,2.746407e+002
4.200414e+003,2.734377e+002
4.202342e+003,2.710867e+002
4.204271e+003,2.687343e+002
4.206199e+003,2.681019e+002
4.208127e+003,2.693008e+002
4.210056e+003,2.730336e+002
4.211984e+003,2.741982e+002
4.213913e+003,2.741524e+002
4.215841e+003,2.772508e+002
4.217770e+003,2.778387e+002
4.219698e+003,2.739341e+002
4.221627e+003,2.750132e+002
4.223555e+003,2.750483e+002
4.225484e+003,2.634479e+002
4.227412e+003,2.592758e+002
4.229341e+003,2.631442e+002
4.231269e+003,2.595059e+002
4.233198e+003,2.579340e+002
4.235126e+003,2.692687e+002
4.237055e+003,2.673344e+002
4.238983e+003,2.600805e+002
4.240912e+003,2.730264e+002
4.242840e+003,2.811869e+002
4.244769e+003,2.752165e+002
4.246697e+003,2.725987e+002
4.248625e+003,2.709943e+002
4.250554e+003,2.692475e+002
