1.159199e+002,9.658696e+002
1.178484e+002,1.105361e+003
1.197769e+002,1.209272e+003
1.217053e+002,1.275232e+003
1.236338e+002,1.299641e+003
1.255623e+002,1.253835e+003
1.274907e+002,1.182846e+003
1.294192e+002,1.127440e+003
1.313477e+002,1.099693e+003
1.332761e+002,1.073902e+003
1.352046e+002,1.047522e+003
1.371331e+002,1.022137e+003
1.390615e+002,9.780013e+002
1.409900e+002,8.986895e+002
1.429185e+002,7.983628e+002
1.448469e+002,7.011270e+002
1.467754e+002,5.952492e+002
1.487039e+002,5.028907e+002
1.506323e+002,4.395636e+002
1.525608e+002,4.059481e+002
1.544893e+002,3.772905e+002
1.564177e+002,3.479692e+002
1.583462e+002,3.192382e+002
1.602747e+002,2.970352e+002
1.622031e+002,2.849953e+002
1.641316e+002,2.755634e+002
1.660601e+002,2.648210e+002
1.679885e+002,2.529436e+002
1.699170e+002,2.397700e+002
1.718455e+002,2.230649e+002
1.737739e+002,2.029992e+002
1.757024e+002,1.890482e+002
1.776309e+002,1.848713e+002
1.795593e+002,1.843537e+002
1.814878e+002,1.823052e+002
1.834163e+002,1.783990e+002
1.853447e+002,1.733197e+002
1.872732e+002,1.660929e+002
1.892017e+002,1.570062e+002
1.911301e+002,1.500023e+002
1.930586e+002,1.450376e+002
1.949871e+002,1.424795e+002
1.969155e+002,1.436917e+002
1.988440e+002,1.520048e+002
2.007725e+002,1.603753e+002
2.027009e+002,1.686529e+002
2.046294e+002,1.780068e+002
2.065579e+002,1.794734e+002
2.084864e+002,1.687052e+002
2.104148e+002,1.497706e+002
2.123433e+002,1.314362e+002
2.142718e+002,1.120701e+002
2.162002e+002,9.497054e+001
2.181287e+002,8.126672e+001
2.200572e+002,7.176587e+001
2.219856e+002,6.410011e+001
2.239141e+002,5.842822e+001
2.258426e+002,5.451072e+001
2.277710e+002,5.123841e+001
2.296995e+002,4.936327e+001
2.316280e+002,4.740494e+001
2.335564e+002,4.469128e+001
2.354849e+002,4.041394e+001
2.374134e+002,3.644761e+001
2.393418e+002,3.253418e+001
2.412703e+002,2.893652e+001
2.431988e+002,2.618532e+001
2.451272e+002,2.506891e+001
2.470557e+002,2.427407e+001
2.489842e+002,2.305234e+001
2.509126e+002,2.068132e+001
2.528411e+002,1.941251e+001
2.547696e+002,2.092542e+001
2.566980e+002,2.397763e+001
2.586265e+002,2.521021e+001
2.605550e+002,2.218956e+001
2.624834e+002,1.894368e+001
2.644119e+002,1.803516e+001
2.663404e+002,2.027341e+001
2.682688e+002,2.134419e+001
2.701973e+002,1.881441e+001
2.721258e+002,1.377998e+001
2.740542e+002,1.135521e+001
2.759827e+002,1.377240e+001
2.779112e+002,1.689602e+001
2.798396e+002,1.815647e+001
2.817681e+002,1.709992e+001
2.836966e+002,1.700767e+001
2.856250e+002,1.939796e+001
2.875535e+002,2.354423e+001
2.894820e+002,2.638807e+001
2.914104e+002,2.636440e+001
2.933389e+002,2.660996e+001
2.952674e+002,2.897493e+001
2.971958e+002,3.409753e+001
2.991243e+002,3.829018e+001
3.010528e+002,4.027365e+001
3.029813e+002,4.083999e+001
3.049097e+002,4.263635e+001
3.068382e+002,4.792176e+001
3.087667e+002,5.188964e+001
3.106951e+002,5.243110e+001
3.126236e+002,4.876315e+001
3.145521e+002,4.388255e+001
3.164805e+002,3.591545e+001
3.184090e+002,2.735058e+001
3.203375e+002,2.327958e+001
3.222659e+002,2.646132e+001
3.241944e+002,3.014729e+001
3.261229e+002,3.137633e+001
3.280513e+002,2.829961e+001
3.299798e+002,2.759945e+001
3.319083e+002,2.980664e+001
3.338367e+002,3.426036e+001
3.357652e+002,4.000322e+001
3.376937e+002,4.823477e+001
3.396221e+002,5.565092e+001
3.415506e+002,6.094933e+001
3.434791e+002,6.349136e+001
3.454075e+002,6.674505e+001
3.473360e+002,7.043941e+001
3.492645e+002,7.504459e+001
3.511929e+002,8.164382e+001
3.531214e+002,9.387286e+001
3.550499e+002,1.008212e+002
3.569783e+002,9.873553e+001
3.589068e+002,8.753304e+001
3.608353e+002,7.678500e+001
3.627637e+002,6.482131e+001
3.646922e+002,5.472973e+001
3.666207e+002,4.837623e+001
3.685491e+002,4.811882e+001
3.704776e+002,4.672886e+001
3.724061e+002,4.231563e+001
3.743345e+002,3.579878e+001
3.762630e+002,3.057855e+001
3.781915e+002,2.688405e+001
3.801199e+002,2.427379e+001
3.820484e+002,2.264784e+001
3.839769e+002,2.280828e+001
3.859053e+002,2.191961e+001
3.878338e+002,1.813596e+001
3.897623e+002,1.371608e+001
3.916907e+002,1.236048e+001
3.936192e+002,1.598342e+001
3.955477e+002,1.934610e+001
3.974761e+002,2.045888e+001
3.994046e+002,1.875933e+001
4.013331e+002,1.790803e+001
4.032615e+002,1.881220e+001
4.051900e+002,1.995291e+001
4.071185e+002,2.001930e+001
4.090469e+002,1.865322e+001
4.109754e+002,1.738002e+001
4.129039e+002,1.653031e+001
4.148323e+002,1.607663e+001
4.167608e+002,1.583324e+001
4.186893e+002,1.516361e+001
4.206177e+002,1.520750e+001
4.225462e+002,1.709381e+001
4.244747e+002,2.133393e+001
4.264032e+002,2.382417e+001
4.283316e+002,2.246529e+001
4.302601e+002,1.942006e+001
4.321886e+002,1.839837e+001
4.341170e+002,2.058376e+001
4.360455e+002,2.261379e+001
4.379740e+002,2.273915e+001
4.399024e+002,2.119989e+001
4.418309e+002,2.145537e+001
4.437594e+002,2.457823e+001
4.456878e+002,2.893188e+001
4.476163e+002,3.307074e+001
4.495448e+002,3.602572e+001
4.514732e+002,4.181533e+001
4.534017e+002,5.579682e+001
4.553302e+002,7.337011e+001
4.572586e+002,8.392850e+001
4.591871e+002,8.380935e+001
4.611156e+002,8.004802e+001
4.630440e+002,7.294958e+001
4.649725e+002,6.262325e+001
4.669010e+002,5.345468e+001
4.688294e+002,4.618176e+001
4.707579e+002,4.021759e+001
4.726864e+002,3.512090e+001
4.746148e+002,3.150026e+001
4.765433e+002,2.808028e+001
4.784718e+002,2.413882e+001
4.804002e+002,2.040983e+001
4.823287e+002,1.868260e+001
4.842572e+002,2.107478e+001
4.861856e+002,2.289889e+001
4.881141e+002,2.158093e+001
4.900426e+002,1.528140e+001
4.919710e+002,1.253400e+001
4.938995e+002,1.647191e+001
4.958280e+002,2.200690e+001
4.977564e+002,2.431561e+001
4.996849e+002,2.207426e+001
5.016134e+002,2.060242e+001
5.035418e+002,2.109288e+001
5.054703e+002,2.330450e+001
5.073988e+002,2.645762e+001
5.093272e+002,3.126605e+001
5.112557e+002,3.618153e+001
5.131842e+002,4.178780e+001
5.151127e+002,4.808746e+001
5.170411e+002,5.044460e+001
5.189696e+002,4.501563e+001
5.208981e+002,3.721962e+001
5.228265e+002,3.107068e+001
5.247550e+002,2.666535e+001
5.266835e+002,2.365283e+001
5.286119e+002,2.325615e+001
5.305404e+002,2.410600e+001
5.324689e+002,2.369156e+001
5.343973e+002,1.965414e+001
5.363258e+002,1.697145e+001
5.382543e+002,1.812175e+001
5.401827e+002,2.352841e+001
5.421112e+002,2.630593e+001
5.440397e+002,2.426195e+001
5.459681e+002,2.118979e+001
5.478966e+002,1.928275e+001
5.498251e+002,1.873557e+001
5.517535e+002,1.880936e+001
5.536820e+002,2.004642e+001
5.556105e+002,2.160104e+001
5.575389e+002,2.193868e+001
5.594674e+002,2.027869e+001
5.613959e+002,1.918798e+001
5.633243e+002,2.051004e+001
5.652528e+002,2.342201e+001
5.671813e+002,2.407420e+001
5.691097e+002,1.905471e+001
5.710382e+002,1.458175e+001
5.729667e+002,1.352780e+001
5.748951e+002,1.623610e+001
5.768236e+002,1.858527e+001
5.787521e+002,1.915024e+001
5.806805e+002,1.994699e+001
5.826090e+002,2.191211e+001
5.845375e+002,2.275737e+001
5.864659e+002,2.994058e+001
5.883944e+002,4.699508e+001
5.903229e+002,7.012166e+001
5.922513e+002,9.369782e+001
5.941798e+002,1.245614e+002
5.961083e+002,1.428208e+002
5.980367e+002,1.341896e+002
5.999652e+002,1.020564e+002
6.018937e+002,8.398690e+001
6.038221e+002,7.981496e+001
6.057506e+002,8.883788e+001
6.076791e+002,1.230591e+002
6.096075e+002,1.828006e+002
6.115360e+002,2.172992e+002
6.134645e+002,2.082207e+002
6.153929e+002,1.780959e+002
6.173214e+002,1.417229e+002
6.192499e+002,8.921597e+001
6.211783e+002,5.020946e+001
6.231068e+002,3.076956e+001
6.250353e+002,2.422460e+001
6.269637e+002,2.070137e+001
6.288922e+002,2.133436e+001
6.308207e+002,2.186662e+001
6.327491e+002,2.069975e+001
6.346776e+002,1.826084e+001
6.366061e+002,1.624761e+001
6.385345e+002,1.394745e+001
6.404630e+002,1.276200e+001
6.423915e+002,1.400578e+001
6.443199e+002,1.732119e+001
6.462484e+002,1.930922e+001
6.481769e+002,1.852074e+001
6.501053e+002,1.747840e+001
6.520338e+002,1.755764e+001
6.539623e+002,1.918688e+001
6.558907e+002,2.079622e+001
6.578192e+002,2.202616e+001
6.597477e+002,2.341384e+001
6.616761e+002,2.529543e+001
6.636046e+002,2.744007e+001
6.655331e+002,3.080473e+001
6.674615e+002,3.641873e+001
6.693900e+002,4.316970e+001
6.713185e+002,4.973480e+001
6.732469e+002,6.082739e+001
6.751754e+002,6.591869e+001
6.771039e+002,6.024599e+001
6.790323e+002,4.743686e+001
6.809608e+002,3.769190e+001
6.828893e+002,3.146582e+001
6.848177e+002,2.767530e+001
6.867462e+002,2.637625e+001
6.886747e+002,2.743791e+001
6.906031e+002,2.839168e+001
6.925316e+002,3.016444e+001
6.944601e+002,3.097887e+001
6.963885e+002,2.918602e+001
6.983170e+002,2.501649e+001
7.002455e+002,2.261056e+001
7.021740e+002,2.388415e+001
7.041024e+002,2.565445e+001
7.060309e+002,2.618026e+001
7.079594e+002,2.528058e+001
7.098878e+002,2.354301e+001
7.118163e+002,1.946013e+001
7.137448e+002,1.557740e+001
7.156732e+002,1.476422e+001
7.176017e+002,1.746875e+001
7.195302e+002,1.928223e+001
7.214586e+002,1.728569e+001
7.233871e+002,1.498933e+001
7.253156e+002,1.544642e+001
7.272440e+002,1.581439e+001
7.291725e+002,2.460404e+001
7.311010e+002,4.884814e+001
7.330294e+002,8.035790e+001
7.349579e+002,1.061578e+002
7.368864e+002,1.298775e+002
7.388149e+002,1.407431e+002
7.407433e+002,1.275045e+002
7.426718e+002,9.922079e+001
7.446003e+002,7.485420e+001
7.465287e+002,5.482447e+001
7.484572e+002,3.903197e+001
7.503857e+002,2.806138e+001
7.523141e+002,2.173866e+001
7.542426e+002,1.835291e+001
7.561711e+002,1.932997e+001
7.580995e+002,2.091455e+001
7.600280e+002,2.120073e+001
7.619565e+002,2.061398e+001
7.638849e+002,2.165750e+001
7.658134e+002,2.383564e+001
7.677419e+002,2.843351e+001
7.696703e+002,3.748030e+001
7.715988e+002,5.091689e+001
7.735273e+002,6.120896e+001
7.754557e+002,7.020551e+001
7.773842e+002,7.393500e+001
7.793127e+002,6.813219e+001
7.812411e+002,5.364323e+001
7.831696e+002,4.231120e+001
7.850981e+002,3.523520e+001
7.870266e+002,3.180698e+001
7.889550e+002,3.268632e+001
7.908835e+002,3.874217e+001
7.928120e+002,4.462749e+001
7.947404e+002,4.428238e+001
7.966689e+002,4.898505e+001
7.985974e+002,6.216407e+001
8.005258e+002,8.322244e+001
8.024543e+002,1.214060e+002
8.043828e+002,1.946060e+002
8.063112e+002,2.729979e+002
8.082397e+002,3.447322e+002
8.101682e+002,4.142461e+002
8.120966e+002,4.548412e+002
8.140251e+002,4.428476e+002
8.159536e+002,4.199862e+002
8.178820e+002,4.173831e+002
8.198105e+002,4.357481e+002
8.217390e+002,4.449712e+002
8.236674e+002,4.497944e+002
8.255959e+002,4.356430e+002
8.275244e+002,3.874518e+002
8.294528e+002,2.828333e+002
8.313813e+002,2.006734e+002
8.333098e+002,1.437472e+002
8.352382e+002,1.055999e+002
8.371667e+002,8.600964e+001
8.390952e+002,8.487014e+001
8.410236e+002,8.423714e+001
8.429521e+002,8.109698e+001
8.448806e+002,7.698756e+001
8.468090e+002,7.299981e+001
8.487375e+002,6.966785e+001
8.506660e+002,6.497929e+001
8.525944e+002,5.809381e+001
8.545229e+002,5.056253e+001
8.564514e+002,4.295415e+001
8.583798e+002,3.510176e+001
8.603083e+002,2.955550e+001
8.622368e+002,2.796100e+001
8.641652e+002,2.785656e+001
8.660937e+002,2.761954e+001
8.680222e+002,2.713768e+001
8.699506e+002,2.706332e+001
8.718791e+002,2.774010e+001
8.738076e+002,2.855285e+001
8.757360e+002,2.899808e+001
8.776645e+002,2.898591e+001
8.795930e+002,2.953317e+001
8.815214e+002,3.180840e+001
8.834499e+002,3.363568e+001
8.853784e+002,3.343423e+001
8.873068e+002,3.117303e+001
8.892353e+002,2.950811e+001
8.911638e+002,2.679761e+001
8.930922e+002,2.653751e+001
8.950207e+002,3.156465e+001
8.969492e+002,4.279176e+001
8.988776e+002,5.146856e+001
9.008061e+002,5.712244e+001
9.027346e+002,6.078988e+001
9.046630e+002,6.359219e+001
9.065915e+002,6.521946e+001
9.085200e+002,6.246287e+001
9.104484e+002,5.169572e+001
9.123769e+002,4.080083e+001
9.143054e+002,3.248712e+001
9.162338e+002,2.668312e+001
9.181623e+002,2.261248e+001
9.200908e+002,1.990932e+001
9.220192e+002,1.905644e+001
9.239477e+002,2.146885e+001
9.258762e+002,2.611046e+001
9.278046e+002,2.919668e+001
9.297331e+002,2.989011e+001
9.316616e+002,3.028377e+001
9.335900e+002,3.025083e+001
9.355185e+002,3.046982e+001
9.374470e+002,3.309715e+001
9.393754e+002,4.145598e+001
9.413039e+002,4.790905e+001
9.432324e+002,5.188020e+001
9.451608e+002,5.314270e+001
9.470893e+002,5.049733e+001
9.490178e+002,4.220899e+001
9.509462e+002,3.542321e+001
9.528747e+002,3.217721e+001
9.548032e+002,3.123698e+001
9.567316e+002,3.140813e+001
9.586601e+002,3.304847e+001
9.605886e+002,3.455932e+001
9.625170e+002,3.441170e+001
9.644455e+002,3.480747e+001
9.663740e+002,3.700754e+001
9.683024e+002,3.920943e+001
9.702309e+002,4.887592e+001
9.721594e+002,6.595323e+001
9.740878e+002,9.065215e+001
9.760163e+002,1.205818e+002
9.779448e+002,1.557928e+002
9.798733e+002,2.077304e+002
9.818018e+002,2.672630e+002
9.837302e+002,3.587616e+002
9.856587e+002,4.889502e+002
9.875872e+002,6.570215e+002
9.895156e+002,8.700911e+002
9.914441e+002,1.278100e+003
9.933726e+002,1.562177e+003
9.953010e+002,1.605508e+003
9.972295e+002,1.437897e+003
9.991580e+002,1.182563e+003
1.001086e+003,7.658457e+002
1.003015e+003,4.150286e+002
1.004943e+003,2.305944e+002
1.006872e+003,1.546217e+002
1.008800e+003,1.078586e+002
1.010729e+003,9.625641e+001
1.012657e+003,9.940929e+001
1.014586e+003,1.125869e+002
1.016514e+003,1.374051e+002
1.018443e+003,1.780664e+002
1.020371e+003,2.452247e+002
1.022300e+003,3.019998e+002
1.024228e+003,3.624525e+002
1.026156e+003,4.004258e+002
1.028085e+003,3.902592e+002
1.030013e+003,3.367992e+002
1.031942e+003,2.748812e+002
1.033870e+003,1.945899e+002
1.035799e+003,1.251657e+002
1.037727e+003,7.993256e+001
1.039656e+003,5.782825e+001
1.041584e+003,4.282924e+001
1.043513e+003,4.037626e+001
1.045441e+003,3.876562e+001
1.047370e+003,3.500192e+001
1.049298e+003,3.054747e+001
1.051227e+003,2.919971e+001
1.053155e+003,3.226410e+001
1.055083e+003,3.438058e+001
1.057012e+003,3.277250e+001
1.058940e+003,3.049406e+001
1.060869e+003,3.095445e+001
1.062797e+003,3.484437e+001
1.064726e+003,3.706834e+001
1.066654e+003,3.523497e+001
1.068583e+003,3.276524e+001
1.070511e+003,3.171208e+001
1.072440e+003,3.231330e+001
1.074368e+003,3.157343e+001
1.076297e+003,2.703336e+001
1.078225e+003,2.406469e+001
1.080154e+003,2.603697e+001
1.082082e+003,3.098193e+001
1.084010e+003,3.330764e+001
1.085939e+003,3.254043e+001
1.087867e+003,3.044706e+001
1.089796e+003,2.520195e+001
1.091724e+003,2.008620e+001
1.093653e+003,1.954261e+001
1.095581e+003,2.538785e+001
1.097510e+003,2.988157e+001
1.099438e+003,3.091756e+001
1.101367e+003,3.146365e+001
1.103295e+003,3.342157e+001
1.105224e+003,3.693239e+001
1.107152e+003,4.043215e+001
1.109081e+003,4.286580e+001
1.111009e+003,4.649719e+001
1.112938e+003,5.338590e+001
1.114866e+003,6.197098e+001
1.116794e+003,6.905894e+001
1.118723e+003,7.535260e+001
1.120651e+003,7.778996e+001
1.122580e+003,7.323534e+001
1.124508e+003,6.546510e+001
1.126437e+003,5.744722e+001
1.128365e+003,4.780754e+001
1.130294e+003,4.259039e+001
1.132222e+003,4.230315e+001
1.134151e+003,4.586936e+001
1.136079e+003,5.227205e+001
1.138008e+003,6.188820e+001
1.139936e+003,7.758064e+001
1.141865e+003,1.031250e+002
1.143793e+003,1.288398e+002
1.145721e+003,1.586681e+002
1.147650e+003,1.837399e+002
1.149578e+003,1.895238e+002
1.151507e+003,1.718260e+002
1.153435e+003,1.529611e+002
1.155364e+003,1.357953e+002
1.157292e+003,1.215228e+002
1.159221e+003,1.114596e+002
1.161149e+003,1.060996e+002
1.163078e+003,1.017061e+002
1.165006e+003,9.197485e+001
1.166935e+003,9.040207e+001
1.168863e+003,1.032245e+002
1.170792e+003,1.272620e+002
1.172720e+003,1.560173e+002
1.174648e+003,1.961959e+002
1.176577e+003,2.235081e+002
1.178505e+003,2.319676e+002
1.180434e+003,2.257694e+002
1.182362e+003,2.035985e+002
1.184291e+003,1.662843e+002
1.186219e+003,1.375441e+002
1.188148e+003,1.145233e+002
1.190076e+003,1.102019e+002
1.192005e+003,1.260850e+002
1.193933e+003,1.634762e+002
1.195862e+003,2.280960e+002
1.197790e+003,3.471904e+002
1.199719e+003,4.506074e+002
1.201647e+003,5.495224e+002
1.203575e+003,6.182495e+002
1.205504e+003,6.281613e+002
1.207432e+003,5.717550e+002
1.209361e+003,5.010916e+002
1.211289e+003,3.994593e+002
1.213218e+003,3.046822e+002
1.215146e+003,2.319306e+002
1.217075e+003,1.776433e+002
1.219003e+003,1.352390e+002
1.220932e+003,1.058244e+002
1.222860e+003,8.358344e+001
1.224789e+003,7.049838e+001
1.226717e+003,6.141801e+001
1.228646e+003,5.296152e+001
1.230574e+003,4.495770e+001
1.232502e+003,3.917375e+001
1.234431e+003,3.753319e+001
1.236359e+003,3.596060e+001
1.238288e+003,3.245245e+001
1.240216e+003,2.853459e+001
1.242145e+003,2.773010e+001
1.244073e+003,3.210191e+001
1.246002e+003,3.429670e+001
1.247930e+003,3.101073e+001
1.249859e+003,2.782868e+001
1.251787e+003,2.930237e+001
1.253716e+003,3.425287e+001
1.255644e+003,3.752259e+001
1.257573e+003,3.843375e+001
1.259501e+003,3.845323e+001
1.261429e+003,3.772789e+001
1.263358e+003,3.654654e+001
1.265286e+003,3.485582e+001
1.267215e+003,3.233149e+001
1.269143e+003,3.136804e+001
1.271072e+003,3.186955e+001
1.273000e+003,3.447444e+001
1.274929e+003,3.898307e+001
1.276857e+003,4.577898e+001
1.278786e+003,5.615559e+001
1.280714e+003,7.580463e+001
1.282643e+003,9.086762e+001
1.284571e+003,9.845123e+001
1.286500e+003,1.034946e+002
1.288428e+003,1.053898e+002
1.290356e+003,1.056778e+002
1.292285e+003,1.225143e+002
1.294213e+003,1.653796e+002
1.296142e+003,2.080920e+002
1.298070e+003,2.544580e+002
1.299999e+003,2.876403e+002
1.301927e+003,2.834521e+002
1.303856e+003,2.391368e+002
1.305784e+003,2.024972e+002
1.307713e+003,1.828118e+002
1.309641e+003,1.696260e+002
1.311570e+003,1.619061e+002
1.313498e+003,1.567294e+002
1.315427e+003,1.450258e+002
1.317355e+003,1.184871e+002
1.319283e+003,1.039634e+002
1.321212e+003,1.099307e+002
1.323140e+003,1.218032e+002
1.325069e+003,1.324581e+002
1.326997e+003,1.417343e+002
1.328926e+003,1.477743e+002
1.330854e+003,1.506322e+002
1.332783e+003,1.505583e+002
1.334711e+003,1.471860e+002
1.336640e+003,1.411759e+002
1.338568e+003,1.313870e+002
1.340497e+003,1.184047e+002
1.342425e+003,1.100106e+002
1.344354e+003,1.106263e+002
1.346282e+003,1.087564e+002
1.348210e+003,9.693903e+001
1.350139e+003,8.175787e+001
1.352068e+003,7.008717e+001
1.353996e+003,6.188968e+001
1.355924e+003,5.840535e+001
1.357853e+003,6.398366e+001
1.359781e+003,6.845017e+001
1.361710e+003,6.737384e+001
1.363638e+003,6.267111e+001
1.365567e+003,5.787980e+001
1.367495e+003,5.233499e+001
1.369424e+003,4.863318e+001
1.371352e+003,4.841286e+001
1.373281e+003,4.835907e+001
1.375209e+003,4.614301e+001
1.377138e+003,4.287300e+001
1.379066e+003,4.233312e+001
1.380995e+003,4.639879e+001
1.382923e+003,4.945355e+001
1.384851e+003,5.061256e+001
1.386780e+003,5.114856e+001
1.388708e+003,4.855563e+001
1.390637e+003,4.566477e+001
1.392565e+003,5.269429e+001
1.394494e+003,6.971674e+001
1.396422e+003,9.637613e+001
1.398351e+003,1.506540e+002
1.400279e+003,1.982850e+002
1.402208e+003,2.139879e+002
1.404136e+003,2.033472e+002
1.406065e+003,1.821932e+002
1.407993e+003,1.471832e+002
1.409922e+003,1.143859e+002
1.411850e+003,8.494968e+001
1.413778e+003,6.274525e+001
1.415707e+003,5.191266e+001
1.417635e+003,5.165319e+001
1.419564e+003,5.274699e+001
1.421492e+003,5.323899e+001
1.423421e+003,5.875790e+001
1.425349e+003,7.543196e+001
1.427278e+003,9.301180e+001
1.429206e+003,1.022946e+002
1.431135e+003,1.033771e+002
1.433063e+003,1.074628e+002
1.434992e+003,1.213209e+002
1.436920e+003,1.286709e+002
1.438849e+003,1.273719e+002
1.440777e+003,1.191507e+002
1.442705e+003,1.020811e+002
1.444634e+003,7.698872e+001
1.446562e+003,5.975673e+001
1.448491e+003,5.346268e+001
1.450419e+003,4.895494e+001
1.452348e+003,4.396073e+001
1.454276e+003,4.068182e+001
1.456205e+003,4.144671e+001
1.458133e+003,4.578902e+001
1.460062e+003,5.111694e+001
1.461990e+003,5.852869e+001
1.463919e+003,6.370761e+001
1.465847e+003,6.374068e+001
1.467776e+003,6.258735e+001
1.469704e+003,6.172731e+001
1.471632e+003,6.195726e+001
1.473561e+003,6.742183e+001
1.475489e+003,8.082050e+001
1.477418e+003,9.051267e+001
1.479346e+003,9.026678e+001
1.481275e+003,8.854847e+001
1.483203e+003,9.221944e+001
1.485132e+003,9.893340e+001
1.487060e+003,9.950993e+001
1.488989e+003,9.224799e+001
1.490917e+003,8.389745e+001
1.492846e+003,7.417667e+001
1.494774e+003,6.549886e+001
1.496703e+003,5.886324e+001
1.498631e+003,5.421650e+001
1.500559e+003,5.165809e+001
1.502488e+003,5.185054e+001
1.504416e+003,5.222959e+001
1.506345e+003,5.209839e+001
1.508273e+003,5.265154e+001
1.510202e+003,5.376257e+001
1.512130e+003,5.606414e+001
1.514059e+003,6.129270e+001
1.515987e+003,7.153925e+001
1.517916e+003,7.827901e+001
1.519844e+003,7.952419e+001
1.521773e+003,8.021027e+001
1.523701e+003,8.234274e+001
1.525630e+003,8.446017e+001
1.527558e+003,8.478478e+001
1.529486e+003,8.322816e+001
1.531415e+003,7.982696e+001
1.533343e+003,7.249442e+001
1.535272e+003,6.615363e+001
1.537200e+003,6.211734e+001
1.539129e+003,5.924218e+001
1.541057e+003,5.619109e+001
1.542986e+003,5.325843e+001
1.544914e+003,5.275670e+001
1.546843e+003,5.634282e+001
1.548771e+003,5.812769e+001
1.550700e+003,5.495464e+001
1.552628e+003,5.155688e+001
1.554557e+003,5.118287e+001
1.556485e+003,5.282084e+001
1.558413e+003,5.350975e+001
1.560342e+003,5.282754e+001
1.562270e+003,5.376318e+001
1.564199e+003,5.652665e+001
1.566127e+003,6.140546e+001
1.568056e+003,6.474735e+001
1.569984e+003,7.259208e+001
1.571913e+003,9.477612e+001
1.573841e+003,1.306381e+002
1.575770e+003,1.669263e+002
1.577698e+003,2.122509e+002
1.579627e+003,2.344829e+002
1.581555e+003,2.006302e+002
1.583484e+003,1.577516e+002
1.585412e+003,1.378429e+002
1.587340e+003,1.403996e+002
1.589269e+003,1.686440e+002
1.591197e+003,2.321695e+002
1.593126e+003,2.823988e+002
1.595054e+003,3.053344e+002
1.596983e+003,3.153541e+002
1.598911e+003,3.220206e+002
1.600840e+003,3.207355e+002
1.602768e+003,3.003000e+002
1.604697e+003,2.593913e+002
1.606625e+003,2.155268e+002
1.608554e+003,1.624394e+002
1.610482e+003,1.220560e+002
1.612411e+003,1.075003e+002
1.614339e+003,1.039338e+002
1.616267e+003,1.001463e+002
1.618196e+003,9.624432e+001
1.620124e+003,9.311144e+001
1.622053e+003,9.125998e+001
1.623981e+003,8.875015e+001
1.625910e+003,8.530157e+001
1.627838e+003,8.087414e+001
1.629767e+003,7.411853e+001
1.631695e+003,6.680038e+001
1.633624e+003,6.260914e+001
1.635552e+003,6.200062e+001
1.637481e+003,6.123756e+001
1.639409e+003,6.077125e+001
1.641338e+003,5.900772e+001
1.643266e+003,5.385223e+001
1.645194e+003,4.888709e+001
1.647123e+003,4.747786e+001
1.649051e+003,4.890999e+001
1.650980e+003,4.921178e+001
1.652908e+003,4.841680e+001
1.654837e+003,4.629652e+001
1.656765e+003,4.157836e+001
1.658694e+003,3.700288e+001
1.660622e+003,3.304385e+001
1.662551e+003,3.005687e+001
1.664479e+003,2.854871e+001
1.666408e+003,2.855647e+001
1.668336e+003,2.950582e+001
1.670265e+003,3.252397e+001
1.672193e+003,3.428080e+001
1.674121e+003,3.386028e+001
1.676050e+003,3.260839e+001
1.677978e+003,3.009776e+001
1.679907e+003,2.758495e+001
1.681835e+003,2.831973e+001
1.683764e+003,3.355824e+001
1.685692e+003,3.565755e+001
1.687621e+003,3.211253e+001
1.689549e+003,2.902201e+001
1.691478e+003,2.739592e+001
1.693406e+003,2.684842e+001
1.695335e+003,2.804254e+001
1.697263e+003,3.008381e+001
1.699192e+003,2.967668e+001
1.701120e+003,2.579288e+001
1.703048e+003,2.323347e+001
1.704977e+003,2.330422e+001
1.706905e+003,2.324374e+001
1.708834e+003,2.203475e+001
1.710762e+003,2.068101e+001
1.712691e+003,1.971680e+001
1.714619e+003,1.929922e+001
1.716548e+003,2.058297e+001
1.718476e+003,2.465577e+001
1.720405e+003,2.681987e+001
1.722333e+003,2.485074e+001
1.724262e+003,2.340731e+001
1.726190e+003,2.509375e+001
1.728119e+003,2.691404e+001
1.730047e+003,2.530082e+001
1.731975e+003,2.089473e+001
1.733904e+003,1.879062e+001
1.735832e+003,1.965223e+001
1.737761e+003,2.055181e+001
1.739689e+003,2.134118e+001
1.741618e+003,2.185587e+001
1.743546e+003,2.220287e+001
1.745475e+003,2.213111e+001
1.747403e+003,2.097840e+001
1.749332e+003,1.900984e+001
1.751260e+003,1.853117e+001
1.753189e+003,2.016999e+001
1.755117e+003,2.057197e+001
1.757046e+003,1.800743e+001
1.758974e+003,1.616466e+001
1.760902e+003,1.721066e+001
1.762831e+003,1.885337e+001
1.764759e+003,1.875782e+001
1.766688e+003,1.743279e+001
1.768616e+003,1.730464e+001
1.770545e+003,1.864573e+001
1.772473e+003,1.972502e+001
1.774402e+003,2.028245e+001
1.776330e+003,2.051325e+001
1.778259e+003,2.025850e+001
1.780187e+003,1.991193e+001
1.782116e+003,1.971242e+001
1.784044e+003,1.968556e+001
1.785973e+003,2.002255e+001
1.787901e+003,2.077668e+001
1.789829e+003,2.107104e+001
1.791758e+003,2.060598e+001
1.793686e+003,2.012649e+001
1.795615e+003,1.987775e+001
1.797543e+003,1.971588e+001
1.799472e+003,1.975832e+001
1.801400e+003,1.972558e+001
1.803329e+003,1.859120e+001
1.805257e+003,1.643514e+001
1.807186e+003,1.647591e+001
1.809114e+003,1.994951e+001
1.811043e+003,2.283347e+001
1.812971e+003,2.374661e+001
1.814900e+003,2.408803e+001
1.816828e+003,2.464967e+001
1.818756e+003,2.509620e+001
1.820685e+003,2.459271e+001
1.822613e+003,2.337412e+001
1.824542e+003,2.357438e+001
1.826470e+003,2.602428e+001
1.828399e+003,2.712199e+001
1.830327e+003,2.513173e+001
1.832256e+003,2.325013e+001
1.834184e+003,2.216507e+001
1.836113e+003,2.209320e+001
1.838041e+003,2.428661e+001
1.839970e+003,2.768916e+001
1.841898e+003,2.805488e+001
1.843827e+003,2.403396e+001
1.845755e+003,2.198111e+001
1.847684e+003,2.336156e+001
1.849612e+003,2.453748e+001
1.851541e+003,2.553634e+001
1.853469e+003,2.538508e+001
1.855397e+003,2.235461e+001
1.857326e+003,1.832605e+001
1.859254e+003,1.635437e+001
1.861183e+003,1.646455e+001
1.863111e+003,1.769322e+001
1.865040e+003,2.114841e+001
1.866968e+003,2.328476e+001
1.868897e+003,2.265561e+001
1.870825e+003,2.232163e+001
1.872754e+003,2.431406e+001
1.874682e+003,2.592897e+001
1.876611e+003,2.401128e+001
1.878539e+003,2.006568e+001
1.880468e+003,1.900045e+001
1.882396e+003,2.110247e+001
1.884324e+003,2.073035e+001
1.886253e+003,1.613576e+001
1.888181e+003,1.298708e+001
1.890110e+003,1.216880e+001
1.892038e+003,1.372511e+001
1.893967e+003,2.048492e+001
1.895895e+003,2.742698e+001
1.897824e+003,2.865690e+001
1.899752e+003,2.587946e+001
1.901681e+003,2.436946e+001
1.903609e+003,2.432249e+001
1.905538e+003,2.460177e+001
1.907466e+003,2.509918e+001
1.909395e+003,2.584803e+001
1.911323e+003,2.786040e+001
1.913251e+003,2.897046e+001
1.915180e+003,2.688743e+001
1.917108e+003,2.396581e+001
1.919037e+003,2.343727e+001
1.920965e+003,2.488940e+001
1.922894e+003,2.576589e+001
1.924822e+003,2.577540e+001
1.926751e+003,2.633649e+001
1.928679e+003,2.844295e+001
1.930608e+003,2.970792e+001
1.932536e+003,3.020579e+001
1.934465e+003,2.916070e+001
1.936393e+003,2.427547e+001
1.938322e+003,1.881591e+001
1.940250e+003,1.775234e+001
1.942178e+003,2.040476e+001
1.944107e+003,2.149428e+001
1.946035e+003,2.004036e+001
1.947964e+003,2.137888e+001
1.949892e+003,2.868260e+001
1.951821e+003,3.293623e+001
1.953749e+003,2.943460e+001
1.955678e+003,2.576416e+001
1.957606e+003,2.616410e+001
1.959535e+003,2.778349e+001
1.961463e+003,2.686343e+001
1.963392e+003,2.459518e+001
1.965320e+003,2.544555e+001
1.967249e+003,2.957590e+001
1.969177e+003,3.117275e+001
1.971105e+003,2.865724e+001
1.973034e+003,2.686532e+001
1.974962e+003,2.851015e+001
1.976891e+003,2.904187e+001
1.978819e+003,2.388033e+001
1.980748e+003,1.895209e+001
1.982676e+003,2.130610e+001
1.984605e+003,2.767731e+001
1.986533e+003,2.983927e+001
1.988462e+003,2.747867e+001
1.990390e+003,2.637409e+001
1.992319e+003,2.706674e+001
1.994247e+003,2.808580e+001
1.996176e+003,3.016993e+001
1.998104e+003,3.153078e+001
2.000032e+003,3.150367e+001
2.001961e+003,3.083828e+001
2.003889e+003,2.969192e+001
2.005818e+003,2.838622e+001
2.007746e+003,2.707378e+001
2.009675e+003,2.594989e+001
2.011603e+003,2.664658e+001
2.013532e+003,2.940840e+001
2.015460e+003,3.076722e+001
2.017389e+003,3.002748e+001
2.019317e+003,2.906340e+001
2.021246e+003,2.810166e+001
2.023174e+003,2.744257e+001
2.025103e+003,2.626382e+001
2.027031e+003,2.637269e+001
2.028959e+003,3.079740e+001
2.030888e+003,3.694687e+001
2.032816e+003,3.974396e+001
2.034745e+003,3.934875e+001
2.036673e+003,3.855531e+001
2.038602e+003,3.721941e+001
2.040530e+003,3.594333e+001
2.042459e+003,3.470440e+001
2.044387e+003,3.359684e+001
2.046316e+003,3.279264e+001
2.048244e+003,3.191913e+001
2.050173e+003,2.990895e+001
2.052101e+003,2.856482e+001
2.054030e+003,3.051373e+001
2.055958e+003,3.409264e+001
2.057886e+003,3.518626e+001
2.059815e+003,3.406756e+001
2.061743e+003,3.345205e+001
2.063672e+003,3.335989e+001
2.065600e+003,3.475063e+001
2.067529e+003,3.855615e+001
2.069457e+003,4.162611e+001
2.071386e+003,4.309494e+001
2.073314e+003,4.351295e+001
2.075243e+003,4.180870e+001
2.077171e+003,4.047766e+001
2.079100e+003,4.266119e+001
2.081028e+003,4.641925e+001
2.082957e+003,4.798564e+001
2.084885e+003,4.748008e+001
2.086813e+003,4.641339e+001
2.088742e+003,4.444357e+001
2.090670e+003,4.283670e+001
2.092599e+003,4.112694e+001
2.094527e+003,4.074216e+001
2.096456e+003,4.354523e+001
2.098384e+003,4.525821e+001
2.100313e+003,4.282334e+001
2.102241e+003,4.052286e+001
2.104170e+003,4.179119e+001
2.106098e+003,4.435242e+001
2.108027e+003,4.524455e+001
2.109955e+003,4.502066e+001
2.111884e+003,4.551322e+001
2.113812e+003,4.673519e+001
2.115740e+003,4.703560e+001
2.117669e+003,4.615210e+001
2.119597e+003,4.492520e+001
2.121526e+003,4.188124e+001
2.123454e+003,4.091239e+001
2.125383e+003,4.536067e+001
2.127311e+003,4.884446e+001
2.129240e+003,4.709693e+001
2.131168e+003,4.415931e+001
2.133097e+003,4.324539e+001
2.135025e+003,4.384829e+001
2.136954e+003,4.608344e+001
2.138882e+003,4.913807e+001
2.140811e+003,4.812225e+001
2.142739e+003,4.298977e+001
2.144667e+003,4.075474e+001
2.146596e+003,4.279976e+001
2.148524e+003,4.403583e+001
2.150453e+003,4.318885e+001
2.152381e+003,4.198848e+001
2.154310e+003,4.033889e+001
2.156238e+003,3.924918e+001
2.158167e+003,4.007207e+001
2.160095e+003,4.085238e+001
2.162024e+003,3.877407e+001
2.163952e+003,3.606729e+001
2.165881e+003,3.709781e+001
2.167809e+003,4.112087e+001
2.169738e+003,4.381925e+001
2.171666e+003,4.516401e+001
2.173594e+003,4.698244e+001
2.175523e+003,5.003638e+001
2.177451e+003,4.870604e+001
2.179380e+003,3.926892e+001
2.181308e+003,3.348789e+001
2.183237e+003,3.816531e+001
2.185165e+003,4.227441e+001
2.187094e+003,3.966511e+001
2.189022e+003,3.646087e+001
2.190951e+003,3.720704e+001
2.192879e+003,3.977188e+001
2.194808e+003,4.241230e+001
2.196736e+003,4.439532e+001
2.198665e+003,4.290140e+001
2.200593e+003,3.808890e+001
2.202521e+003,3.645451e+001
2.204450e+003,3.827413e+001
2.206378e+003,4.004815e+001
2.208307e+003,4.160852e+001
2.210235e+003,4.251737e+001
2.212164e+003,4.221730e+001
2.214092e+003,4.240283e+001
2.216021e+003,4.482477e+001
2.217949e+003,4.628152e+001
2.219878e+003,4.389312e+001
2.221806e+003,4.149005e+001
2.223735e+003,4.312082e+001
2.225663e+003,4.567479e+001
2.227592e+003,4.417933e+001
2.229520e+003,4.051540e+001
2.231448e+003,4.037760e+001
2.233377e+003,4.328521e+001
2.235305e+003,4.448978e+001
2.237234e+003,4.392676e+001
2.239162e+003,4.223407e+001
2.241091e+003,3.908600e+001
2.243019e+003,3.703637e+001
2.244948e+003,3.652242e+001
2.246876e+003,3.714846e+001
2.248805e+003,4.011023e+001
2.250733e+003,4.231313e+001
2.252662e+003,4.141251e+001
2.254590e+003,4.076719e+001
2.256519e+003,4.432469e+001
2.258447e+003,4.740964e+001
2.260375e+003,4.345176e+001
2.262304e+003,3.710272e+001
2.264232e+003,3.682677e+001
2.266161e+003,4.068036e+001
2.268089e+003,4.283078e+001
2.270018e+003,4.338912e+001
2.271946e+003,4.415169e+001
2.273875e+003,4.521066e+001
2.275803e+003,4.633665e+001
2.277732e+003,4.796700e+001
2.279660e+003,4.863776e+001
2.281589e+003,4.649504e+001
2.283517e+003,4.622998e+001
2.285446e+003,5.173685e+001
2.287374e+003,5.474503e+001
2.289302e+003,4.980757e+001
2.291231e+003,4.512461e+001
2.293159e+003,4.522900e+001
2.295088e+003,4.732729e+001
2.297016e+003,5.012008e+001
2.298945e+003,5.264785e+001
2.300873e+003,5.291013e+001
2.302802e+003,5.212494e+001
2.304730e+003,5.493522e+001
2.306659e+003,6.012433e+001
2.308587e+003,5.628458e+001
2.310516e+003,4.125458e+001
2.312444e+003,3.597860e+001
2.314373e+003,4.208884e+001
2.316301e+003,4.888925e+001
2.318229e+003,5.671125e+001
2.320158e+003,5.963155e+001
2.322086e+003,5.359600e+001
2.324015e+003,5.017918e+001
2.325943e+003,5.611016e+001
2.327872e+003,6.085023e+001
2.329800e+003,5.846248e+001
2.331729e+003,5.626008e+001
2.333657e+003,6.007409e+001
2.335586e+003,6.417150e+001
2.337514e+003,6.273864e+001
2.339443e+003,5.945644e+001
2.341371e+003,5.893124e+001
2.343300e+003,5.995650e+001
2.345228e+003,6.050138e+001
2.347156e+003,6.055867e+001
2.349085e+003,5.988871e+001
2.351013e+003,5.860545e+001
2.352942e+003,5.790646e+001
2.354870e+003,5.767448e+001
2.356799e+003,5.896424e+001
2.358727e+003,6.246110e+001
2.360656e+003,6.574288e+001
2.362584e+003,6.957666e+001
2.364513e+003,7.044718e+001
2.366441e+003,6.667767e+001
2.368370e+003,6.277972e+001
2.370298e+003,5.876069e+001
2.372227e+003,5.726225e+001
2.374155e+003,6.138494e+001
2.376083e+003,6.555936e+001
2.378012e+003,6.705477e+001
2.379940e+003,6.746478e+001
2.381869e+003,6.762344e+001
2.383797e+003,6.760641e+001
2.385726e+003,6.853147e+001
2.387654e+003,6.855531e+001
2.389583e+003,6.310505e+001
2.391511e+003,5.578474e+001
2.393440e+003,5.423100e+001
2.395368e+003,5.697424e+001
2.397297e+003,5.854662e+001
2.399225e+003,5.910352e+001
2.401154e+003,6.104417e+001
2.403082e+003,6.449865e+001
2.405010e+003,6.876616e+001
2.406939e+003,7.489810e+001
2.408867e+003,7.563586e+001
2.410796e+003,6.894878e+001
2.412724e+003,6.545479e+001
2.414653e+003,6.723618e+001
2.416581e+003,7.060497e+001
2.418510e+003,7.678098e+001
2.420438e+003,8.028017e+001
2.422367e+003,7.777995e+001
2.424295e+003,7.498291e+001
2.426224e+003,7.234423e+001
2.428152e+003,7.185081e+001
2.430081e+003,7.774386e+001
2.432009e+003,8.191463e+001
2.433938e+003,7.685324e+001
2.435866e+003,7.163551e+001
2.437794e+003,7.465405e+001
2.439723e+003,8.025122e+001
2.441651e+003,8.377010e+001
2.443580e+003,8.464548e+001
2.445508e+003,8.030473e+001
2.447437e+003,7.340022e+001
2.449365e+003,7.008327e+001
2.451294e+003,6.943707e+001
2.453222e+003,6.775426e+001
2.455151e+003,6.555791e+001
2.457079e+003,6.569191e+001
2.459008e+003,6.795267e+001
2.460936e+003,6.874001e+001
2.462865e+003,6.766655e+001
2.464793e+003,6.765517e+001
2.466721e+003,6.940549e+001
2.468650e+003,6.978658e+001
2.470578e+003,6.827081e+001
2.472507e+003,6.725799e+001
2.474435e+003,6.674255e+001
2.476364e+003,6.784911e+001
2.478292e+003,7.171954e+001
2.480221e+003,7.445768e+001
2.482149e+003,7.508076e+001
2.484078e+003,7.449065e+001
2.486006e+003,7.225709e+001
2.487935e+003,6.985795e+001
2.489863e+003,6.717954e+001
2.491792e+003,6.522838e+001
2.493720e+003,6.456478e+001
2.495648e+003,6.436929e+001
2.497577e+003,6.450208e+001
2.499505e+003,6.454362e+001
2.501434e+003,6.372705e+001
2.503362e+003,6.329745e+001
2.505291e+003,6.463150e+001
2.507219e+003,6.655196e+001
2.509148e+003,6.691403e+001
2.511076e+003,6.800070e+001
2.513005e+003,7.565132e+001
2.514933e+003,8.353909e+001
2.516862e+003,8.064124e+001
2.518790e+003,7.263157e+001
2.520719e+003,6.939808e+001
2.522647e+003,6.984199e+001
2.524575e+003,7.218373e+001
2.526504e+003,7.552328e+001
2.528432e+003,7.580161e+001
2.530361e+003,7.357987e+001
2.532289e+003,7.150908e+001
2.534218e+003,6.987671e+001
2.536146e+003,7.048694e+001
2.538075e+003,7.336745e+001
2.540003e+003,7.692765e+001
2.541932e+003,8.156953e+001
2.543860e+003,8.301313e+001
2.545789e+003,8.089326e+001
2.547717e+003,7.762668e+001
2.549646e+003,7.292017e+001
2.551574e+003,7.099291e+001
2.553502e+003,7.228835e+001
2.555431e+003,7.636407e+001
2.557359e+003,8.528358e+001
2.559288e+003,9.074334e+001
2.561216e+003,8.842434e+001
2.563145e+003,8.961861e+001
2.565073e+003,9.625597e+001
2.567002e+003,1.029502e+002
2.568930e+003,1.098649e+002
2.570859e+003,1.133410e+002
2.572787e+003,1.104281e+002
2.574716e+003,1.084733e+002
2.576644e+003,1.116033e+002
2.578573e+003,1.124925e+002
2.580501e+003,1.092797e+002
2.582429e+003,1.031425e+002
2.584358e+003,9.028850e+001
2.586287e+003,8.263257e+001
2.588215e+003,9.020848e+001
2.590144e+003,9.448884e+001
2.592072e+003,8.146862e+001
2.594000e+003,7.100064e+001
2.595929e+003,7.586940e+001
2.597857e+003,8.162430e+001
2.599786e+003,7.928896e+001
2.601714e+003,7.723830e+001
2.603643e+003,8.056099e+001
2.605571e+003,8.483136e+001
2.607500e+003,8.785953e+001
2.609428e+003,8.976218e+001
2.611357e+003,8.889977e+001
2.613285e+003,8.900745e+001
2.615214e+003,9.649168e+001
2.617142e+003,1.025601e+002
2.619071e+003,9.695232e+001
2.620999e+003,8.924403e+001
2.622927e+003,8.765335e+001
2.624856e+003,8.814270e+001
2.626784e+003,8.763251e+001
2.628713e+003,8.597622e+001
2.630641e+003,8.161029e+001
2.632570e+003,7.733098e+001
2.634498e+003,7.709135e+001
2.636427e+003,7.845052e+001
2.638355e+003,7.797437e+001
2.640284e+003,7.763400e+001
2.642212e+003,8.074092e+001
2.644141e+003,8.502734e+001
2.646069e+003,8.727904e+001
2.647998e+003,8.826347e+001
2.649926e+003,8.941141e+001
2.651854e+003,9.002618e+001
2.653783e+003,8.835352e+001
2.655711e+003,8.580716e+001
2.657640e+003,8.290620e+001
2.659568e+003,8.193262e+001
2.661497e+003,9.082929e+001
2.663425e+003,1.024943e+002
2.665354e+003,9.985113e+001
2.667282e+003,9.047980e+001
2.669211e+003,9.131522e+001
2.671139e+003,9.692285e+001
2.673068e+003,9.592912e+001
2.674996e+003,9.201855e+001
2.676925e+003,9.457652e+001
2.678853e+003,9.994272e+001
2.680781e+003,9.932761e+001
2.682710e+003,9.459177e+001
2.684638e+003,8.870937e+001
2.686567e+003,8.304462e+001
2.688495e+003,8.010001e+001
2.690424e+003,7.974000e+001
2.692352e+003,8.283595e+001
2.694281e+003,8.775345e+001
2.696209e+003,9.012366e+001
2.698138e+003,9.095417e+001
2.700066e+003,9.335609e+001
2.701995e+003,9.587102e+001
2.703923e+003,9.446752e+001
2.705852e+003,9.108820e+001
2.707780e+003,9.097171e+001
2.709708e+003,9.241850e+001
2.711637e+003,8.983276e+001
2.713565e+003,8.613409e+001
2.715494e+003,8.931690e+001
2.717422e+003,9.607587e+001
2.719351e+003,1.013966e+002
2.721279e+003,1.042231e+002
2.723208e+003,1.007741e+002
2.725136e+003,9.393736e+001
2.727065e+003,8.835554e+001
2.728993e+003,8.495480e+001
2.730922e+003,8.668150e+001
2.732850e+003,9.120146e+001
2.734779e+003,9.551530e+001
2.736707e+003,9.906874e+001
2.738635e+003,1.010750e+002
2.740564e+003,1.014817e+002
2.742492e+003,9.860090e+001
2.744421e+003,9.544550e+001
2.746349e+003,9.830611e+001
2.748278e+003,1.023001e+002
2.750206e+003,9.964026e+001
2.752135e+003,9.413935e+001
2.754063e+003,9.032804e+001
2.755992e+003,8.798764e+001
2.757920e+003,8.778413e+001
2.759849e+003,8.798488e+001
2.761777e+003,8.591084e+001
2.763706e+003,8.402127e+001
2.765634e+003,8.484389e+001
2.767563e+003,8.764735e+001
2.769491e+003,9.417672e+001
2.771419e+003,9.943874e+001
2.773348e+003,9.635204e+001
2.775276e+003,9.282509e+001
2.777205e+003,9.736504e+001
2.779133e+003,1.025342e+002
2.781062e+003,1.014992e+002
2.782990e+003,9.901039e+001
2.784919e+003,9.940477e+001
2.786847e+003,9.874432e+001
2.788776e+003,9.357796e+001
2.790704e+003,8.791409e+001
2.792633e+003,8.160497e+001
2.794561e+003,7.941653e+001
2.796490e+003,8.694266e+001
2.798418e+003,9.521491e+001
2.800346e+003,1.016756e+002
2.802275e+003,1.056466e+002
2.804203e+003,1.060174e+002
2.806132e+003,1.049740e+002
2.808060e+003,1.005692e+002
2.809989e+003,9.949651e+001
2.811917e+003,1.052789e+002
2.813846e+003,1.110828e+002
2.815774e+003,1.165921e+002
2.817703e+003,1.176104e+002
2.819631e+003,1.064139e+002
2.821560e+003,1.026065e+002
2.823488e+003,1.140643e+002
2.825417e+003,1.212120e+002
2.827345e+003,1.194439e+002
2.829273e+003,1.217679e+002
2.831202e+003,1.320812e+002
2.833130e+003,1.421233e+002
2.835059e+003,1.505153e+002
2.836987e+003,1.592570e+002
2.838916e+003,1.681922e+002
2.840844e+003,1.791073e+002
2.842773e+003,1.925068e+002
2.844701e+003,2.006899e+002
2.846630e+003,2.007113e+002
2.848558e+003,2.147535e+002
2.850487e+003,2.441492e+002
2.852415e+003,2.560911e+002
2.854344e+003,2.518458e+002
2.856272e+003,2.457085e+002
2.858200e+003,2.390146e+002
2.860129e+003,2.387652e+002
2.862057e+003,2.434313e+002
2.863986e+003,2.479798e+002
2.865914e+003,2.487327e+002
2.867843e+003,2.291735e+002
2.869771e+003,1.984194e+002
2.871700e+003,1.718555e+002
2.873628e+003,1.530501e+002
2.875557e+003,1.529960e+002
2.877485e+003,1.616599e+002
2.879414e+003,1.653192e+002
2.881342e+003,1.668454e+002
2.883271e+003,1.655295e+002
2.885199e+003,1.682930e+002
2.887127e+003,1.876566e+002
2.889056e+003,2.072918e+002
2.890984e+003,2.086031e+002
2.892913e+003,2.131265e+002
2.894841e+003,2.349662e+002
2.896770e+003,2.628794e+002
2.898698e+003,2.943979e+002
2.900627e+003,3.244720e+002
2.902555e+003,3.476119e+002
2.904484e+003,3.756792e+002
2.906412e+003,4.045384e+002
2.908341e+003,4.579711e+002
2.910269e+003,5.424359e+002
2.912198e+003,6.563979e+002
2.914126e+003,8.071182e+002
2.916054e+003,9.633446e+002
2.917983e+003,1.128769e+003
2.919911e+003,1.251438e+003
2.921840e+003,1.336268e+003
2.923768e+003,1.305115e+003
2.925697e+003,1.144323e+003
2.927625e+003,9.965298e+002
2.929554e+003,8.685329e+002
2.931482e+003,8.156840e+002
2.933411e+003,8.277411e+002
2.935339e+003,8.233729e+002
2.937268e+003,8.056901e+002
2.939196e+003,7.778886e+002
2.941125e+003,7.543986e+002
2.943053e+003,7.904543e+002
2.944981e+003,8.362075e+002
2.946910e+003,8.060536e+002
2.948838e+003,7.398235e+002
2.950767e+003,6.626779e+002
2.952695e+003,6.087546e+002
2.954624e+003,5.968630e+002
2.956552e+003,6.313113e+002
2.958481e+003,7.609205e+002
2.960409e+003,8.705698e+002
2.962338e+003,9.142197e+002
2.964266e+003,8.902019e+002
2.966195e+003,7.630880e+002
2.968123e+003,6.466168e+002
2.970052e+003,5.657065e+002
2.971980e+003,5.290820e+002
2.973908e+003,5.494201e+002
2.975837e+003,5.703487e+002
2.977765e+003,5.892131e+002
2.979694e+003,5.753575e+002
2.981622e+003,5.185495e+002
2.983551e+003,4.582971e+002
2.985479e+003,3.945215e+002
2.987408e+003,3.397202e+002
2.989336e+003,2.968108e+002
2.991265e+003,2.826504e+002
2.993193e+003,2.896174e+002
2.995122e+003,2.932492e+002
2.997050e+003,3.000214e+002
2.998979e+003,3.352509e+002
3.000907e+003,3.708119e+002
3.002835e+003,3.672525e+002
3.004764e+003,3.508111e+002
3.006692e+003,3.412577e+002
3.008621e+003,3.380744e+002
3.010549e+003,3.407498e+002
3.012478e+003,3.491804e+002
3.014406e+003,3.592605e+002
3.016335e+003,3.821693e+002
3.018263e+003,4.281062e+002
3.020192e+003,4.768244e+002
3.022120e+003,5.275143e+002
3.024049e+003,5.711896e+002
3.025977e+003,6.023074e+002
3.027906e+003,6.432455e+002
3.029834e+003,6.966226e+002
3.031762e+003,7.465921e+002
3.033691e+003,7.917804e+002
3.035619e+003,8.231169e+002
3.037548e+003,8.406964e+002
3.039476e+003,8.288107e+002
3.041405e+003,8.127518e+002
3.043333e+003,8.132916e+002
3.045262e+003,8.974691e+002
3.047190e+003,1.105444e+003
3.049119e+003,1.495689e+003
3.051047e+003,2.321712e+003
3.052976e+003,3.073522e+003
3.054904e+003,3.457292e+003
3.056833e+003,3.629308e+003
3.058761e+003,3.572957e+003
3.060689e+003,3.488108e+003
3.062618e+003,3.489588e+003
3.064546e+003,3.318949e+003
3.066475e+003,2.933710e+003
3.068403e+003,2.444107e+003
3.070332e+003,1.818319e+003
3.072260e+003,1.322641e+003
3.074189e+003,9.569169e+002
3.076117e+003,7.216613e+002
3.078046e+003,5.970420e+002
3.079974e+003,5.077299e+002
3.081903e+003,4.459557e+002
3.083831e+003,4.060400e+002
3.085760e+003,3.762043e+002
3.087688e+003,3.373367e+002
3.089616e+003,3.048723e+002
3.091545e+003,2.973405e+002
3.093473e+003,2.919474e+002
3.095402e+003,2.749664e+002
3.097330e+003,2.578778e+002
3.099259e+003,2.437200e+002
3.101187e+003,2.301181e+002
3.103116e+003,2.145492e+002
3.105044e+003,2.042725e+002
3.106973e+003,2.000350e+002
3.108901e+003,1.944944e+002
3.110830e+003,1.875956e+002
3.112758e+003,1.859466e+002
3.114687e+003,1.879435e+002
3.116615e+003,1.860288e+002
3.118543e+003,1.808635e+002
3.120472e+003,1.720118e+002
3.122400e+003,1.630868e+002
3.124329e+003,1.589059e+002
3.126257e+003,1.559516e+002
3.128186e+003,1.509108e+002
3.130114e+003,1.478596e+002
3.132043e+003,1.513658e+002
3.133971e+003,1.524744e+002
3.135900e+003,1.483154e+002
3.137828e+003,1.429206e+002
3.139757e+003,1.362985e+002
3.141685e+003,1.308077e+002
3.143614e+003,1.265859e+002
3.145542e+003,1.245796e+002
3.147470e+003,1.248098e+002
3.149399e+003,1.293191e+002
3.151327e+003,1.348191e+002
3.153256e+003,1.309560e+002
3.155184e+003,1.281416e+002
3.157113e+003,1.389043e+002
3.159041e+003,1.580807e+002
3.160970e+003,1.932493e+002
3.162898e+003,2.160358e+002
3.164827e+003,2.093832e+002
3.166755e+003,1.948573e+002
3.168684e+003,1.750094e+002
3.170612e+003,1.537507e+002
3.172541e+003,1.303999e+002
3.174469e+003,1.179968e+002
3.176397e+003,1.163987e+002
3.178326e+003,1.072438e+002
3.180254e+003,9.512798e+001
3.182183e+003,9.372268e+001
3.184111e+003,9.854814e+001
3.186040e+003,1.066184e+002
3.187968e+003,1.117043e+002
3.189897e+003,1.052546e+002
3.191825e+003,1.003852e+002
3.193754e+003,1.044381e+002
3.195682e+003,1.112413e+002
3.197611e+003,1.204843e+002
3.199539e+003,1.283220e+002
3.201468e+003,1.349659e+002
3.203396e+003,1.327431e+002
3.205324e+003,1.215936e+002
3.207253e+003,1.098435e+002
3.209181e+003,9.770795e+001
3.211110e+003,8.420370e+001
3.213038e+003,7.231148e+001
3.214967e+003,6.843362e+001
3.216895e+003,6.606913e+001
3.218824e+003,5.869607e+001
3.220752e+003,5.346251e+001
3.222681e+003,5.548092e+001
3.224609e+003,5.749772e+001
3.226538e+003,5.847096e+001
3.228466e+003,5.780863e+001
3.230395e+003,5.526395e+001
3.232323e+003,5.225104e+001
3.234251e+003,4.912932e+001
3.236180e+003,5.017712e+001
3.238108e+003,5.259307e+001
3.240037e+003,4.969252e+001
3.241965e+003,4.583588e+001
3.243894e+003,4.691145e+001
3.245822e+003,4.782792e+001
3.247751e+003,4.486419e+001
3.249679e+003,4.293206e+001
3.251608e+003,4.500169e+001
3.253536e+003,4.573682e+001
3.255465e+003,4.466335e+001
3.257393e+003,4.285041e+001
3.259322e+003,4.053656e+001
3.261250e+003,4.056538e+001
3.263178e+003,4.170287e+001
3.265107e+003,3.815162e+001
3.267035e+003,3.553357e+001
3.268964e+003,4.463149e+001
3.270892e+003,5.163784e+001
3.272821e+003,4.486599e+001
3.274749e+003,3.812501e+001
3.276678e+003,3.562331e+001
3.278606e+003,3.392444e+001
3.280535e+003,3.219973e+001
3.282463e+003,3.382318e+001
3.284392e+003,3.803258e+001
3.286320e+003,3.709678e+001
3.288249e+003,3.348482e+001
3.290177e+003,3.478531e+001
3.292105e+003,3.653954e+001
3.294034e+003,3.213375e+001
3.295962e+003,2.894982e+001
3.297891e+003,3.431717e+001
3.299819e+003,3.644419e+001
3.301748e+003,3.173133e+001
3.303676e+003,2.842966e+001
3.305605e+003,2.793721e+001
3.307533e+003,2.900801e+001
3.309462e+003,3.130240e+001
3.311390e+003,3.263204e+001
3.313319e+003,3.362382e+001
3.315247e+003,3.632296e+001
3.317176e+003,3.798935e+001
3.319104e+003,3.527118e+001
3.321032e+003,3.267199e+001
3.322961e+003,3.194540e+001
3.324889e+003,3.277974e+001
3.326818e+003,3.591469e+001
3.328746e+003,3.386742e+001
3.330675e+003,2.660419e+001
3.332603e+003,2.243444e+001
3.334532e+003,2.158019e+001
3.336460e+003,2.702552e+001
3.338389e+003,3.313373e+001
3.340317e+003,3.555973e+001
3.342246e+003,3.337372e+001
3.344174e+003,2.177015e+001
3.346103e+003,1.629665e+001
3.348031e+003,2.248095e+001
3.349959e+003,2.522749e+001
3.351888e+003,2.311317e+001
3.353816e+003,2.293689e+001
3.355745e+003,2.369778e+001
3.357673e+003,2.154553e+001
3.359602e+003,1.926559e+001
3.361530e+003,2.188511e+001
3.363459e+003,2.405784e+001
3.365387e+003,2.184033e+001
3.367316e+003,2.027272e+001
3.369244e+003,2.103411e+001
3.371173e+003,2.062914e+001
3.373101e+003,1.897731e+001
3.375030e+003,2.103280e+001
3.376958e+003,2.484472e+001
3.378886e+003,2.236043e+001
3.380815e+003,1.799464e+001
3.382743e+003,1.590123e+001
3.384672e+003,1.587698e+001
3.386600e+003,2.029167e+001
3.388529e+003,2.104946e+001
3.390457e+003,1.520225e+001
3.392386e+003,1.390632e+001
3.394314e+003,1.802616e+001
3.396243e+003,2.008482e+001
3.398171e+003,2.053420e+001
3.400100e+003,2.077015e+001
3.402028e+003,2.016131e+001
3.403957e+003,1.616121e+001
3.405885e+003,1.431091e+001
3.407813e+003,1.847797e+001
3.409742e+003,2.135018e+001
3.411670e+003,2.159352e+001
3.413599e+003,2.097069e+001
3.415527e+003,1.992839e+001
3.417456e+003,2.101548e+001
3.419384e+003,2.302371e+001
3.421313e+003,2.520823e+001
3.423241e+003,2.471489e+001
3.425170e+003,1.540711e+001
3.427098e+003,1.084085e+001
3.429027e+003,1.629417e+001
3.430955e+003,2.104967e+001
3.432884e+003,2.388875e+001
3.434812e+003,2.449607e+001
3.436740e+003,2.328411e+001
3.438669e+003,2.023703e+001
3.440597e+003,1.798090e+001
3.442526e+003,2.113371e+001
3.444454e+003,2.306281e+001
3.446383e+003,2.035172e+001
3.448311e+003,1.737046e+001
3.450240e+003,1.419797e+001
3.452168e+003,1.697818e+001
3.454097e+003,2.401153e+001
3.456025e+003,2.273458e+001
3.457954e+003,1.795399e+001
3.459882e+003,1.537794e+001
3.461811e+003,1.521897e+001
3.463739e+003,1.936683e+001
3.465667e+003,2.063397e+001
3.467596e+003,1.476307e+001
3.469524e+003,1.099328e+001
3.471453e+003,9.541138e+000
3.473381e+003,1.240729e+001
3.475310e+003,1.685813e+001
3.477238e+003,1.699536e+001
3.479167e+003,1.660265e+001
3.481095e+003,1.909171e+001
3.483024e+003,2.075415e+001
3.484952e+003,2.070122e+001
3.486881e+003,1.797451e+001
3.488809e+003,1.307581e+001
3.490738e+003,1.523869e+001
3.492666e+003,2.134492e+001
3.494594e+003,2.468356e+001
3.496523e+003,2.596484e+001
3.498451e+003,2.522376e+001
3.500380e+003,2.328285e+001
3.502308e+003,1.978528e+001
3.504237e+003,1.912116e+001
3.506165e+003,2.183772e+001
3.508094e+003,2.047137e+001
3.510022e+003,1.735277e+001
3.511951e+003,1.944397e+001
3.513879e+003,2.115263e+001
3.515808e+003,1.438981e+001
3.517736e+003,1.301879e+001
3.519665e+003,2.291276e+001
3.521593e+003,2.512776e+001
3.523521e+003,1.806466e+001
3.525450e+003,1.918473e+001
3.527378e+003,2.352271e+001
3.529307e+003,1.979580e+001
3.531235e+003,1.656304e+001
3.533164e+003,2.252010e+001
3.535092e+003,2.519235e+001
3.537021e+003,1.881887e+001
3.538949e+003,1.672011e+001
3.540878e+003,1.870922e+001
3.542806e+003,1.968818e+001
3.544735e+003,1.958994e+001
3.546663e+003,1.670331e+001
3.548592e+003,1.554814e+001
3.550520e+003,1.964915e+001
3.552448e+003,2.327627e+001
3.554377e+003,2.579882e+001
3.556305e+003,2.268179e+001
3.558234e+003,1.600752e+001
3.560162e+003,1.570205e+001
3.562091e+003,1.755521e+001
3.564019e+003,1.502076e+001
3.565948e+003,1.453269e+001
3.567876e+003,2.261802e+001
3.569805e+003,2.415385e+001
3.571733e+003,1.820497e+001
3.573662e+003,1.789032e+001
3.575590e+003,2.069615e+001
3.577519e+003,1.856682e+001
3.579447e+003,1.576145e+001
3.581376e+003,1.516259e+001
3.583304e+003,1.638897e+001
3.585233e+003,2.003787e+001
3.587161e+003,2.141192e+001
3.589090e+003,2.039791e+001
3.591018e+003,1.900813e+001
3.592947e+003,1.811394e+001
3.594875e+003,2.089673e+001
3.596803e+003,2.155780e+001
3.598732e+003,1.297194e+001
3.600660e+003,1.132679e+001
3.602589e+003,1.827636e+001
3.604517e+003,2.470718e+001
3.606446e+003,2.735847e+001
3.608374e+003,1.014551e+001
3.610303e+003,-5.269955e+000
3.612231e+003,2.438313e+000
3.614160e+003,1.105319e+001
3.616088e+003,1.569223e+001
3.618017e+003,1.699066e+001
3.619945e+003,1.568678e+001
3.621874e+003,1.518496e+001
3.623802e+003,1.624764e+001
3.625730e+003,2.143811e+001
3.627659e+003,2.495116e+001
3.629587e+003,2.396940e+001
3.631516e+003,2.192146e+001
3.633444e+003,1.918171e+001
3.635373e+003,1.550867e+001
3.637301e+003,1.299963e+001
3.639230e+003,1.803885e+001
3.641158e+003,2.247799e+001
3.643087e+003,1.967282e+001
3.645015e+003,1.762985e+001
3.646944e+003,1.747076e+001
3.648872e+003,1.730635e+001
3.650801e+003,1.696440e+001
3.652729e+003,1.500983e+001
3.654657e+003,1.442410e+001
3.656586e+003,1.974533e+001
3.658514e+003,2.304384e+001
3.660443e+003,2.247824e+001
3.662371e+003,2.149449e+001
3.664300e+003,2.041037e+001
3.666228e+003,1.901348e+001
3.668157e+003,1.794034e+001
3.670085e+003,1.884754e+001
3.672014e+003,1.775262e+001
3.673942e+003,1.269403e+001
3.675871e+003,1.349604e+001
3.677799e+003,1.967444e+001
3.679728e+003,2.186750e+001
3.681656e+003,2.164611e+001
3.683584e+003,1.994258e+001
3.685513e+003,1.882541e+001
3.687441e+003,1.906008e+001
3.689370e+003,1.968888e+001
3.691298e+003,2.045963e+001
3.693227e+003,1.971833e+001
3.695155e+003,1.808306e+001
3.697084e+003,1.482028e+001
3.699012e+003,1.462370e+001
3.700941e+003,2.092174e+001
3.702869e+003,2.175314e+001
3.704798e+003,1.648914e+001
3.706726e+003,1.732654e+001
3.708655e+003,2.044111e+001
3.710583e+003,2.063701e+001
3.712511e+003,2.019281e+001
3.714440e+003,2.012542e+001
3.716368e+003,1.959291e+001
3.718297e+003,1.839862e+001
3.720225e+003,1.320096e+001
3.722154e+003,9.876993e+000
3.724082e+003,2.038031e+001
3.726011e+003,2.779502e+001
3.727939e+003,2.424685e+001
3.729868e+003,1.953983e+001
3.731796e+003,1.496021e+001
3.733725e+003,1.302227e+001
3.735653e+003,1.387369e+001
3.737582e+003,1.968660e+001
3.739510e+003,2.361557e+001
3.741438e+003,2.283053e+001
3.743367e+003,2.033598e+001
3.745295e+003,1.699118e+001
3.747224e+003,1.725496e+001
3.749152e+003,1.870193e+001
3.751081e+003,1.916545e+001
3.753009e+003,1.834681e+001
3.754938e+003,1.579087e+001
3.756866e+003,1.402430e+001
3.758795e+003,1.343054e+001
3.760723e+003,1.533318e+001
3.762652e+003,1.790624e+001
3.764580e+003,1.921326e+001
3.766509e+003,2.159587e+001
3.768437e+003,2.619423e+001
3.770365e+003,2.449069e+001
3.772294e+003,1.884316e+001
3.774222e+003,1.582987e+001
3.776151e+003,1.621940e+001
3.778079e+003,2.317137e+001
3.780008e+003,2.559261e+001
3.781936e+003,2.187717e+001
3.783865e+003,1.934436e+001
3.785793e+003,1.806142e+001
3.787722e+003,1.896640e+001
3.789650e+003,1.854555e+001
3.791579e+003,1.346469e+001
3.793507e+003,1.220806e+001
3.795436e+003,1.508956e+001
3.797364e+003,1.845139e+001
3.799292e+003,2.089080e+001
3.801221e+003,2.007093e+001
3.803149e+003,1.836593e+001
3.805078e+003,1.646409e+001
3.807006e+003,1.340518e+001
3.808935e+003,1.023348e+001
3.810863e+003,1.174991e+001
3.812792e+003,1.507563e+001
3.814720e+003,1.869305e+001
3.816649e+003,2.104551e+001
3.818577e+003,2.170413e+001
3.820506e+003,2.040343e+001
3.822434e+003,1.792160e+001
3.824363e+003,1.507506e+001
3.826291e+003,1.366860e+001
3.828219e+003,1.485296e+001
3.830148e+003,1.649140e+001
3.832076e+003,1.819473e+001
3.834005e+003,1.800401e+001
3.835933e+003,1.790750e+001
3.837862e+003,2.129706e+001
3.839790e+003,2.278139e+001
3.841719e+003,2.088439e+001
3.843647e+003,2.131110e+001
3.845576e+003,2.274409e+001
3.847504e+003,1.886829e+001
3.849433e+003,1.563491e+001
3.851361e+003,1.882053e+001
3.853290e+003,1.800682e+001
3.855218e+003,1.320228e+001
3.857146e+003,1.670095e+001
3.859075e+003,2.221259e+001
3.861003e+003,2.070316e+001
3.862932e+003,1.839374e+001
3.864860e+003,1.724989e+001
3.866789e+003,1.570642e+001
3.868717e+003,1.495755e+001
3.870646e+003,2.056669e+001
3.872574e+003,2.468713e+001
3.874503e+003,2.126013e+001
3.876431e+003,2.076383e+001
3.878360e+003,2.401272e+001
3.880288e+003,2.140502e+001
3.882217e+003,1.694470e+001
3.884145e+003,1.383724e+001
3.886073e+003,1.517711e+001
3.888002e+003,2.331497e+001
3.889930e+003,2.345807e+001
3.891859e+003,2.000606e+001
3.893787e+003,2.643209e+001
3.895716e+003,3.246226e+001
3.897644e+003,3.283708e+001
3.899573e+003,3.010965e+001
3.901501e+003,2.523886e+001
3.903430e+003,2.302727e+001
3.905358e+003,2.251190e+001
3.907287e+003,2.335537e+001
3.909215e+003,2.392156e+001
3.911144e+003,2.398144e+001
3.913072e+003,2.663826e+001
3.915000e+003,2.951360e+001
3.916929e+003,2.727122e+001
3.918857e+003,2.597774e+001
3.920786e+003,3.004541e+001
3.922714e+003,2.397326e+001
3.924643e+003,1.313840e+001
3.926571e+003,1.807763e+001
3.928500e+003,2.432916e+001
3.930428e+003,2.266865e+001
3.932357e+003,2.180215e+001
3.934285e+003,2.258176e+001
3.936214e+003,2.444325e+001
3.938142e+003,2.588730e+001
3.940071e+003,2.514904e+001
3.941999e+003,2.397419e+001
3.943927e+003,2.265812e+001
3.945856e+003,2.111989e+001
3.947784e+003,1.983166e+001
3.949713e+003,1.924220e+001
3.951641e+003,1.995811e+001
3.953570e+003,2.238712e+001
3.955498e+003,1.967331e+001
3.957427e+003,1.498347e+001
3.959355e+003,1.793965e+001
3.961284e+003,2.171545e+001
3.963212e+003,2.327345e+001
3.965141e+003,2.347439e+001
3.967069e+003,2.248482e+001
3.968998e+003,1.835662e+001
3.970926e+003,1.846160e+001
3.972854e+003,3.288005e+001
3.974783e+003,3.346286e+001
3.976711e+003,2.088542e+001
3.978640e+003,2.075420e+001
3.980568e+003,2.358498e+001
3.982497e+003,1.986792e+001
3.984425e+003,1.759179e+001
3.986354e+003,1.832070e+001
3.988282e+003,1.923989e+001
3.990211e+003,1.956511e+001
3.992139e+003,1.715137e+001
3.994068e+003,1.680077e+001
3.995996e+003,1.957057e+001
3.997925e+003,2.151651e+001
3.999853e+003,2.166315e+001
4.001781e+003,1.665183e+001
4.003710e+003,1.448287e+001
4.005638e+003,1.782261e+001
4.007567e+003,2.019576e+001
4.009495e+003,2.153682e+001
4.011424e+003,2.201232e+001
4.013352e+003,2.234371e+001
4.015281e+003,2.314380e+001
4.017209e+003,2.222801e+001
4.019138e+003,2.073718e+001
4.021066e+003,2.222523e+001
4.022995e+003,2.311263e+001
4.024923e+003,2.193146e+001
4.026852e+003,1.904025e+001
4.028780e+003,1.501942e+001
4.030708e+003,9.290355e+000
4.032637e+003,7.763863e+000
4.034565e+003,1.551547e+001
4.036494e+003,1.848134e+001
4.038422e+003,1.685103e+001
4.040351e+003,1.564349e+001
4.042279e+003,1.468816e+001
4.044208e+003,1.381200e+001
4.046136e+003,1.327701e+001
4.048065e+003,1.325104e+001
4.049993e+003,1.420328e+001
4.051922e+003,1.585019e+001
4.053850e+003,1.829760e+001
4.055779e+003,2.050439e+001
4.057707e+003,2.148494e+001
4.059635e+003,1.297541e+001
4.061564e+003,7.942287e+000
4.063492e+003,1.665433e+001
4.065421e+003,2.262263e+001
4.067349e+003,2.458237e+001
4.069278e+003,2.699704e+001
4.071206e+003,2.609897e+001
4.073135e+003,1.438404e+001
4.075063e+003,1.315789e+001
4.076992e+003,2.065849e+001
4.078920e+003,2.164701e+001
4.080849e+003,2.005258e+001
4.082777e+003,1.798965e+001
4.084706e+003,1.617617e+001
4.086634e+003,1.453054e+001
4.088563e+003,1.129378e+001
4.090491e+003,1.050791e+001
4.092419e+003,1.505746e+001
4.094348e+003,1.807316e+001
4.096276e+003,1.917320e+001
4.098205e+003,1.897070e+001
4.100133e+003,1.830271e+001
4.102062e+003,1.720038e+001
4.103990e+003,1.886472e+001
4.105919e+003,2.113840e+001
4.107847e+003,1.324309e+001
4.109776e+003,8.551017e+000
4.111704e+003,1.848921e+001
4.113633e+003,1.845257e+001
4.115561e+003,1.304075e+001
4.117490e+003,1.543370e+001
4.119418e+003,1.649373e+001
4.121347e+003,1.237361e+001
4.123275e+003,9.715308e+000
4.125204e+003,9.252224e+000
4.127132e+003,1.260005e+001
4.129061e+003,1.611710e+001
4.130989e+003,1.886551e+001
4.132917e+003,1.189370e+001
4.134846e+003,3.657359e+000
4.136774e+003,9.226093e+000
4.138703e+003,1.324173e+001
4.140631e+003,1.178442e+001
4.142560e+003,1.413230e+001
4.144488e+003,1.748660e+001
4.146417e+003,1.922072e+001
4.148345e+003,1.801197e+001
4.150273e+003,1.390310e+001
4.152202e+003,1.471135e+001
4.154130e+003,1.564311e+001
4.156059e+003,1.142741e+001
4.157987e+003,7.629729e+000
4.159916e+003,5.551495e+000
4.161844e+003,1.066089e+001
4.163773e+003,1.457773e+001
4.165701e+003,9.209393e+000
4.167630e+003,1.145841e+001
4.169558e+003,1.757347e+001
4.171487e+003,1.226146e+001
4.173415e+003,8.451827e+000
4.175344e+003,1.167237e+001
4.177272e+003,1.706050e+001
4.179201e+003,2.075208e+001
4.181129e+003,1.316049e+001
4.183058e+003,9.662063e+000
4.184986e+003,1.384004e+001
4.186915e+003,1.918340e+001
4.188843e+003,2.239211e+001
4.190771e+003,1.894210e+001
4.192700e+003,1.568129e+001
4.194628e+003,1.389792e+001
4.196557e+003,1.481486e+001
4.198485e+003,1.530154e+001
4.200414e+003,1.225227e+001
4.202342e+003,1.233469e+001
4.204271e+003,1.512490e+001
4.206199e+003,1.657398e+001
4.208127e+003,1.695891e+001
4.210056e+003,1.618697e+001
4.211984e+003,1.532523e+001
4.213913e+003,1.423599e+001
4.215841e+003,1.215264e+001
4.217770e+003,1.041568e+001
4.219698e+003,9.292637e+000
4.221627e+003,1.104131e+001
4.223555e+003,1.377657e+001
4.225484e+003,1.499641e+001
4.227412e+003,1.859080e+001
4.229341e+003,2.361684e+001
4.231269e+003,1.834779e+001
4.233198e+003,1.286193e+001
4.235126e+003,1.472425e+001
4.237055e+003,1.738492e+001
4.238983e+003,1.858974e+001
4.240912e+003,1.058436e+001
4.242840e+003,7.064816e+000
4.244769e+003,1.357925e+001
4.246697e+003,1.535579e+001
4.248625e+003,1.449110e+001
4.250554e+003,1.348581e+001
