1.159199e+002,1.107939e+002
1.178484e+002,1.296406e+002
1.197769e+002,1.455507e+002
1.217053e+002,1.583877e+002
1.236338e+002,1.642608e+002
1.255623e+002,1.596524e+002
1.274907e+002,1.500653e+002
1.294192e+002,1.408268e+002
1.313477e+002,1.322742e+002
1.332761e+002,1.235413e+002
1.352046e+002,1.130669e+002
1.371331e+002,9.992585e+001
1.390615e+002,9.121620e+001
1.409900e+002,9.132703e+001
1.429185e+002,9.620161e+001
1.448469e+002,9.881523e+001
1.467754e+002,9.567528e+001
1.487039e+002,9.297174e+001
1.506323e+002,9.449339e+001
1.525608e+002,1.009745e+002
1.544893e+002,1.045795e+002
1.564177e+002,1.009601e+002
1.583462e+002,9.239544e+001
1.602747e+002,9.111888e+001
1.622031e+002,1.025716e+002
1.641316e+002,1.151371e+002
1.660601e+002,1.222246e+002
1.679885e+002,1.207231e+002
1.699170e+002,1.216150e+002
1.718455e+002,1.294779e+002
1.737739e+002,1.440091e+002
1.757024e+002,1.513099e+002
1.776309e+002,1.477385e+002
1.795593e+002,1.390508e+002
1.814878e+002,1.303108e+002
1.834163e+002,1.205128e+002
1.853447e+002,1.116683e+002
1.872732e+002,1.027261e+002
1.892017e+002,9.379573e+001
1.911301e+002,9.022797e+001
1.930586e+002,9.786465e+001
1.949871e+002,1.097296e+002
1.969155e+002,1.169696e+002
1.988440e+002,1.164873e+002
2.007725e+002,1.153074e+002
2.027009e+002,1.163619e+002
2.046294e+002,1.201981e+002
2.065579e+002,1.203857e+002
2.084864e+002,1.142373e+002
2.104148e+002,1.040446e+002
2.123433e+002,9.473506e+001
2.142718e+002,8.494189e+001
2.162002e+002,7.740714e+001
2.181287e+002,7.314842e+001
2.200572e+002,7.315926e+001
2.219856e+002,7.413949e+001
2.239141e+002,7.694931e+001
2.258426e+002,8.045259e+001
2.277710e+002,8.217311e+001
2.296995e+002,8.242291e+001
2.316280e+002,8.046352e+001
2.335564e+002,7.606794e+001
2.354849e+002,6.604195e+001
2.374134e+002,5.785853e+001
2.393418e+002,5.243321e+001
2.412703e+002,4.889824e+001
2.431988e+002,4.524546e+001
2.451272e+002,3.986975e+001
2.470557e+002,3.551091e+001
2.489842e+002,3.400269e+001
2.509126e+002,3.724643e+001
2.528411e+002,3.933978e+001
2.547696e+002,3.882145e+001
2.566980e+002,3.651360e+001
2.586265e+002,3.434967e+001
2.605550e+002,3.123120e+001
2.624834e+002,2.916031e+001
2.644119e+002,2.993752e+001
2.663404e+002,3.433724e+001
2.682688e+002,3.804690e+001
2.701973e+002,3.923865e+001
2.721258e+002,3.863617e+001
2.740542e+002,3.952758e+001
2.759827e+002,4.250982e+001
2.779112e+002,4.635456e+001
2.798396e+002,5.119563e+001
2.817681e+002,5.773720e+001
2.836966e+002,6.173981e+001
2.856250e+002,6.185113e+001
2.875535e+002,5.874696e+001
2.894820e+002,5.452148e+001
2.914104e+002,4.761116e+001
2.933389e+002,4.115062e+001
2.952674e+002,3.681963e+001
2.971958e+002,3.497433e+001
2.991243e+002,3.319230e+001
3.010528e+002,3.067362e+001
3.029813e+002,2.782849e+001
3.049097e+002,2.591677e+001
3.068382e+002,2.522759e+001
3.087667e+002,2.508124e+001
3.106951e+002,2.500307e+001
3.126236e+002,2.471050e+001
3.145521e+002,2.545674e+001
3.164805e+002,2.752573e+001
3.184090e+002,3.065696e+001
3.203375e+002,3.441300e+001
3.222659e+002,4.023730e+001
3.241944e+002,4.458498e+001
3.261229e+002,4.578106e+001
3.280513e+002,4.159638e+001
3.299798e+002,4.003191e+001
3.319083e+002,4.361896e+001
3.338367e+002,4.893066e+001
3.357652e+002,5.141538e+001
3.376937e+002,5.003574e+001
3.396221e+002,4.733607e+001
3.415506e+002,4.382336e+001
3.434791e+002,3.915296e+001
3.454075e+002,3.571910e+001
3.473360e+002,3.378825e+001
3.492645e+002,3.299121e+001
3.511929e+002,3.300475e+001
3.531214e+002,3.459391e+001
3.550499e+002,3.552528e+001
3.569783e+002,3.488358e+001
3.589068e+002,3.271186e+001
3.608353e+002,3.137317e+001
3.627637e+002,3.114960e+001
3.646922e+002,3.157074e+001
3.666207e+002,3.244001e+001
3.685491e+002,3.434510e+001
3.704776e+002,3.540081e+001
3.724061e+002,3.501266e+001
3.743345e+002,3.350784e+001
3.762630e+002,3.220884e+001
3.781915e+002,3.125042e+001
3.801199e+002,3.033479e+001
3.820484e+002,2.893071e+001
3.839769e+002,2.584982e+001
3.859053e+002,2.551461e+001
3.878338e+002,3.045855e+001
3.897623e+002,3.758680e+001
3.916907e+002,4.194824e+001
3.936192e+002,4.255292e+001
3.955477e+002,4.199154e+001
3.974761e+002,4.061597e+001
3.994046e+002,3.793710e+001
4.013331e+002,3.770068e+001
4.032615e+002,4.154560e+001
4.051900e+002,4.664733e+001
4.071185e+002,5.066725e+001
4.090469e+002,5.329779e+001
4.109754e+002,5.592373e+001
4.129039e+002,5.869644e+001
4.148323e+002,6.169137e+001
4.167608e+002,6.535431e+001
4.186893e+002,7.091440e+001
4.206177e+002,7.599578e+001
4.225462e+002,7.953624e+001
4.244747e+002,8.148151e+001
4.264032e+002,8.246024e+001
4.283316e+002,8.076685e+001
4.302601e+002,7.860494e+001
4.321886e+002,7.967433e+001
4.341170e+002,8.265784e+001
4.360455e+002,8.996776e+001
4.379740e+002,1.061287e+002
4.399024e+002,1.300777e+002
4.418309e+002,1.470169e+002
4.437594e+002,1.549450e+002
4.456878e+002,1.565609e+002
4.476163e+002,1.519979e+002
4.495448e+002,1.404380e+002
4.514732e+002,1.271205e+002
4.534017e+002,1.101780e+002
4.553302e+002,9.216954e+001
4.572586e+002,7.935519e+001
4.591871e+002,7.285626e+001
4.611156e+002,7.060693e+001
4.630440e+002,7.382930e+001
4.649725e+002,8.241068e+001
4.669010e+002,9.082518e+001
4.688294e+002,1.009567e+002
4.707579e+002,1.089978e+002
4.726864e+002,1.119553e+002
4.746148e+002,1.077508e+002
4.765433e+002,1.000476e+002
4.784718e+002,8.542860e+001
4.804002e+002,6.721128e+001
4.823287e+002,5.404588e+001
4.842572e+002,4.910356e+001
4.861856e+002,4.596522e+001
4.881141e+002,4.150417e+001
4.900426e+002,3.447012e+001
4.919710e+002,3.098862e+001
4.938995e+002,3.293571e+001
4.958280e+002,3.724309e+001
4.977564e+002,4.159185e+001
4.996849e+002,4.678898e+001
5.016134e+002,4.968563e+001
5.035418e+002,4.790200e+001
5.054703e+002,4.291797e+001
5.073988e+002,4.104182e+001
5.093272e+002,4.524500e+001
5.112557e+002,4.922886e+001
5.131842e+002,4.958019e+001
5.151127e+002,4.656009e+001
5.170411e+002,4.595106e+001
5.189696e+002,5.033007e+001
5.208981e+002,5.645803e+001
5.228265e+002,6.167542e+001
5.247550e+002,6.443707e+001
5.266835e+002,6.942271e+001
5.286119e+002,8.175526e+001
5.305404e+002,9.618053e+001
5.324689e+002,1.032952e+002
5.343973e+002,9.624019e+001
5.363258e+002,8.875344e+001
5.382543e+002,8.504171e+001
5.401827e+002,8.549392e+001
5.421112e+002,8.478201e+001
5.440397e+002,8.222939e+001
5.459681e+002,7.892055e+001
5.478966e+002,7.530389e+001
5.498251e+002,7.092783e+001
5.517535e+002,6.791547e+001
5.536820e+002,6.806072e+001
5.556105e+002,6.919020e+001
5.575389e+002,6.746519e+001
5.594674e+002,6.140218e+001
5.613959e+002,5.607061e+001
5.633243e+002,5.369448e+001
5.652528e+002,5.351596e+001
5.671813e+002,5.244497e+001
5.691097e+002,4.880092e+001
5.710382e+002,4.557171e+001
5.729667e+002,4.414875e+001
5.748951e+002,4.469119e+001
5.768236e+002,4.515487e+001
5.787521e+002,4.452215e+001
5.806805e+002,4.432686e+001
5.826090e+002,4.603446e+001
5.845375e+002,5.177749e+001
5.864659e+002,5.520463e+001
5.883944e+002,5.383411e+001
5.903229e+002,5.015149e+001
5.922513e+002,4.900534e+001
5.941798e+002,5.116579e+001
5.961083e+002,5.412416e+001
5.980367e+002,5.667699e+001
5.999652e+002,5.895645e+001
6.018937e+002,6.311530e+001
6.038221e+002,6.926997e+001
6.057506e+002,7.707217e+001
6.076791e+002,8.742172e+001
6.096075e+002,1.002970e+002
6.115360e+002,1.118043e+002
6.134645e+002,1.235402e+002
6.153929e+002,1.318263e+002
6.173214e+002,1.338955e+002
6.192499e+002,1.266512e+002
6.211783e+002,1.186155e+002
6.231068e+002,1.097572e+002
6.250353e+002,1.007394e+002
6.269637e+002,9.255298e+001
6.288922e+002,8.520160e+001
6.308207e+002,7.851009e+001
6.327491e+002,7.125480e+001
6.346776e+002,6.416099e+001
6.366061e+002,6.102743e+001
6.385345e+002,6.544094e+001
6.404630e+002,7.015628e+001
6.423915e+002,7.379707e+001
6.443199e+002,7.611519e+001
6.462484e+002,7.570585e+001
6.481769e+002,7.066487e+001
6.501053e+002,6.452811e+001
6.520338e+002,5.919102e+001
6.539623e+002,5.491905e+001
6.558907e+002,5.078242e+001
6.578192e+002,4.582727e+001
6.597477e+002,4.151535e+001
6.616761e+002,3.949832e+001
6.636046e+002,3.995731e+001
6.655331e+002,4.089251e+001
6.674615e+002,4.240160e+001
6.693900e+002,4.391867e+001
6.713185e+002,4.467267e+001
6.732469e+002,4.408859e+001
6.751754e+002,4.336398e+001
6.771039e+002,4.189975e+001
6.790323e+002,4.042701e+001
6.809608e+002,4.082159e+001
6.828893e+002,4.430481e+001
6.848177e+002,4.759223e+001
6.867462e+002,4.996349e+001
6.886747e+002,5.138763e+001
6.906031e+002,5.061013e+001
6.925316e+002,4.515290e+001
6.944601e+002,3.991862e+001
6.963885e+002,3.705756e+001
6.983170e+002,3.647538e+001
7.002455e+002,3.617910e+001
7.021740e+002,3.561486e+001
7.041024e+002,3.571869e+001
7.060309e+002,3.749136e+001
7.079594e+002,4.228123e+001
7.098878e+002,4.420890e+001
7.118163e+002,4.078206e+001
7.137448e+002,3.615448e+001
7.156732e+002,3.426317e+001
7.176017e+002,3.541848e+001
7.195302e+002,3.626170e+001
7.214586e+002,3.523177e+001
7.233871e+002,3.402309e+001
7.253156e+002,3.449221e+001
7.272440e+002,3.829275e+001
7.291725e+002,4.099358e+001
7.311010e+002,4.125822e+001
7.330294e+002,4.039378e+001
7.349579e+002,4.107151e+001
7.368864e+002,4.464813e+001
7.388149e+002,4.635842e+001
7.407433e+002,4.121468e+001
7.426718e+002,3.321803e+001
7.446003e+002,3.183001e+001
7.465287e+002,4.489316e+001
7.484572e+002,5.567133e+001
7.503857e+002,6.052673e+001
7.523141e+002,6.032233e+001
7.542426e+002,5.919995e+001
7.561711e+002,5.525495e+001
7.580995e+002,5.335949e+001
7.600280e+002,5.570625e+001
7.619565e+002,6.174768e+001
7.638849e+002,6.943488e+001
7.658134e+002,8.326151e+001
7.677419e+002,9.420564e+001
7.696703e+002,9.897363e+001
7.715988e+002,9.725339e+001
7.735273e+002,9.366200e+001
7.754557e+002,8.738244e+001
7.773842e+002,8.012216e+001
7.793127e+002,7.160247e+001
7.812411e+002,6.203362e+001
7.831696e+002,5.575696e+001
7.850981e+002,5.586185e+001
7.870266e+002,5.712436e+001
7.889550e+002,5.764381e+001
7.908835e+002,5.735791e+001
7.928120e+002,5.634108e+001
7.947404e+002,5.271710e+001
7.966689e+002,4.992562e+001
7.985974e+002,5.104588e+001
8.005258e+002,5.615010e+001
8.024543e+002,5.828861e+001
8.043828e+002,5.182693e+001
8.063112e+002,4.554065e+001
8.082397e+002,4.472664e+001
8.101682e+002,5.163928e+001
8.120966e+002,5.692900e+001
8.140251e+002,5.898995e+001
8.159536e+002,6.062680e+001
8.178820e+002,6.358028e+001
8.198105e+002,6.780119e+001
8.217390e+002,7.306250e+001
8.236674e+002,7.699911e+001
8.255959e+002,8.389323e+001
8.275244e+002,9.615239e+001
8.294528e+002,1.137414e+002
8.313813e+002,1.380479e+002
8.333098e+002,1.756700e+002
8.352382e+002,2.152494e+002
8.371667e+002,2.513342e+002
8.390952e+002,2.850164e+002
8.410236e+002,3.041276e+002
8.429521e+002,3.030228e+002
8.448806e+002,2.877375e+002
8.468090e+002,2.597454e+002
8.487375e+002,2.111991e+002
8.506660e+002,1.705094e+002
8.525944e+002,1.391523e+002
8.545229e+002,1.142771e+002
8.564514e+002,9.391077e+001
8.583798e+002,7.767367e+001
8.603083e+002,6.816852e+001
8.622368e+002,7.065482e+001
8.641652e+002,7.613401e+001
8.660937e+002,7.803584e+001
8.680222e+002,7.478288e+001
8.699506e+002,7.542292e+001
8.718791e+002,8.127973e+001
8.738076e+002,9.017643e+001
8.757360e+002,1.006536e+002
8.776645e+002,1.126481e+002
8.795930e+002,1.280731e+002
8.815214e+002,1.509216e+002
8.834499e+002,1.737731e+002
8.853784e+002,1.958013e+002
8.873068e+002,2.174728e+002
8.892353e+002,2.244925e+002
8.911638e+002,2.048469e+002
8.930922e+002,1.786638e+002
8.950207e+002,1.530165e+002
8.969492e+002,1.277199e+002
8.988776e+002,1.059176e+002
9.008061e+002,8.595974e+001
9.027346e+002,7.079674e+001
9.046630e+002,6.390044e+001
9.065915e+002,6.362393e+001
9.085200e+002,6.327126e+001
9.104484e+002,5.969795e+001
9.123769e+002,5.937003e+001
9.143054e+002,6.827764e+001
9.162338e+002,8.567393e+001
9.181623e+002,9.254550e+001
9.200908e+002,7.989178e+001
9.220192e+002,6.774059e+001
9.239477e+002,6.357324e+001
9.258762e+002,6.505273e+001
9.278046e+002,6.354957e+001
9.297331e+002,5.686982e+001
9.316616e+002,5.068268e+001
9.335900e+002,4.672527e+001
9.355185e+002,4.483857e+001
9.374470e+002,4.485230e+001
9.393754e+002,4.928087e+001
9.413039e+002,5.237959e+001
9.432324e+002,5.382784e+001
9.451608e+002,5.333358e+001
9.470893e+002,4.928390e+001
9.490178e+002,3.891044e+001
9.509462e+002,3.284023e+001
9.528747e+002,3.796346e+001
9.548032e+002,4.664021e+001
9.567316e+002,5.013238e+001
9.586601e+002,4.679345e+001
9.605886e+002,4.373870e+001
9.625170e+002,4.181485e+001
9.644455e+002,4.093219e+001
9.663740e+002,4.118290e+001
9.683024e+002,4.313319e+001
9.702309e+002,4.486983e+001
9.721594e+002,4.521733e+001
9.740878e+002,4.625737e+001
9.760163e+002,5.033244e+001
9.779448e+002,5.712137e+001
9.798733e+002,6.197121e+001
9.818018e+002,6.171856e+001
9.837302e+002,6.231734e+001
9.856587e+002,6.741927e+001
9.875872e+002,7.712411e+001
9.895156e+002,8.432848e+001
9.914441e+002,8.934456e+001
9.933726e+002,9.168458e+001
9.953010e+002,9.099771e+001
9.972295e+002,8.735177e+001
9.991580e+002,8.116135e+001
1.001086e+003,7.073097e+001
1.003015e+003,6.135581e+001
1.004943e+003,5.455379e+001
1.006872e+003,5.002974e+001
1.008800e+003,4.794107e+001
1.010729e+003,4.986540e+001
1.012657e+003,5.042236e+001
1.014586e+003,4.639475e+001
1.016514e+003,4.193844e+001
1.018443e+003,4.200494e+001
1.020371e+003,4.951772e+001
1.022300e+003,5.442980e+001
1.024228e+003,5.480606e+001
1.026156e+003,5.385915e+001
1.028085e+003,5.279384e+001
1.030013e+003,5.176521e+001
1.031942e+003,5.399268e+001
1.033870e+003,6.134700e+001
1.035799e+003,7.039167e+001
1.037727e+003,8.085384e+001
1.039656e+003,9.234027e+001
1.041584e+003,1.001829e+002
1.043513e+003,1.047211e+002
1.045441e+003,1.050172e+002
1.047370e+003,9.812806e+001
1.049298e+003,8.709846e+001
1.051227e+003,7.917365e+001
1.053155e+003,7.517433e+001
1.055083e+003,7.150269e+001
1.057012e+003,6.616248e+001
1.058940e+003,6.149589e+001
1.060869e+003,5.981863e+001
1.062797e+003,6.148217e+001
1.064726e+003,6.393149e+001
1.066654e+003,6.534245e+001
1.068583e+003,6.862383e+001
1.070511e+003,7.603934e+001
1.072440e+003,8.799647e+001
1.074368e+003,9.919517e+001
1.076297e+003,1.074114e+002
1.078225e+003,1.173879e+002
1.080154e+003,1.322249e+002
1.082082e+003,1.501741e+002
1.084010e+003,1.665625e+002
1.085939e+003,1.827576e+002
1.087867e+003,1.943244e+002
1.089796e+003,1.996378e+002
1.091724e+003,1.994290e+002
1.093653e+003,1.934415e+002
1.095581e+003,1.801230e+002
1.097510e+003,1.654693e+002
1.099438e+003,1.489157e+002
1.101367e+003,1.324006e+002
1.103295e+003,1.163793e+002
1.105224e+003,1.007829e+002
1.107152e+003,8.926055e+001
1.109081e+003,8.309489e+001
1.111009e+003,7.936913e+001
1.112938e+003,7.680530e+001
1.114866e+003,7.607534e+001
1.116794e+003,7.902057e+001
1.118723e+003,8.709796e+001
1.120651e+003,9.487968e+001
1.122580e+003,1.012656e+002
1.124508e+003,1.061113e+002
1.126437e+003,1.091047e+002
1.128365e+003,1.100666e+002
1.130294e+003,1.096400e+002
1.132222e+003,1.079735e+002
1.134151e+003,1.050635e+002
1.136079e+003,9.990235e+001
1.138008e+003,9.279208e+001
1.139936e+003,8.815995e+001
1.141865e+003,8.551913e+001
1.143793e+003,8.590514e+001
1.145721e+003,8.966631e+001
1.147650e+003,9.683891e+001
1.149578e+003,1.082714e+002
1.151507e+003,1.255272e+002
1.153435e+003,1.398506e+002
1.155364e+003,1.511393e+002
1.157292e+003,1.569523e+002
1.159221e+003,1.548600e+002
1.161149e+003,1.441729e+002
1.163078e+003,1.314647e+002
1.165006e+003,1.134495e+002
1.166935e+003,9.734319e+001
1.168863e+003,8.601801e+001
1.170792e+003,7.820520e+001
1.172720e+003,7.027471e+001
1.174648e+003,6.100070e+001
1.176577e+003,5.459488e+001
1.178505e+003,5.334950e+001
1.180434e+003,5.432053e+001
1.182362e+003,5.434689e+001
1.184291e+003,5.353190e+001
1.186219e+003,5.638840e+001
1.188148e+003,6.723659e+001
1.190076e+003,7.665908e+001
1.192005e+003,8.040421e+001
1.193933e+003,7.978805e+001
1.195862e+003,7.915831e+001
1.197790e+003,7.930838e+001
1.199719e+003,7.812668e+001
1.201647e+003,7.424713e+001
1.203575e+003,6.977818e+001
1.205504e+003,6.650269e+001
1.207432e+003,6.451250e+001
1.209361e+003,6.338648e+001
1.211289e+003,6.406637e+001
1.213218e+003,6.448386e+001
1.215146e+003,6.362262e+001
1.217075e+003,6.196766e+001
1.219003e+003,6.045238e+001
1.220932e+003,5.916460e+001
1.222860e+003,5.784501e+001
1.224789e+003,5.554711e+001
1.226717e+003,5.391464e+001
1.228646e+003,5.487001e+001
1.230574e+003,5.890550e+001
1.232502e+003,6.030141e+001
1.234431e+003,5.473583e+001
1.236359e+003,5.134057e+001
1.238288e+003,5.316737e+001
1.240216e+003,5.863811e+001
1.242145e+003,6.469125e+001
1.244073e+003,7.131232e+001
1.246002e+003,7.852740e+001
1.247930e+003,8.862628e+001
1.249859e+003,9.740552e+001
1.251787e+003,1.015716e+002
1.253716e+003,1.019483e+002
1.255644e+003,1.018651e+002
1.257573e+003,1.017627e+002
1.259501e+003,1.005781e+002
1.261429e+003,9.517464e+001
1.263358e+003,8.998853e+001
1.265286e+003,9.009148e+001
1.267215e+003,9.593700e+001
1.269143e+003,1.042235e+002
1.271072e+003,1.177289e+002
1.273000e+003,1.302202e+002
1.274929e+003,1.406450e+002
1.276857e+003,1.483076e+002
1.278786e+003,1.508183e+002
1.280714e+003,1.442870e+002
1.282643e+003,1.382423e+002
1.284571e+003,1.320987e+002
1.286500e+003,1.272629e+002
1.288428e+003,1.240096e+002
1.290356e+003,1.226626e+002
1.292285e+003,1.261940e+002
1.294213e+003,1.354511e+002
1.296142e+003,1.481300e+002
1.298070e+003,1.687407e+002
1.299999e+003,1.892263e+002
1.301927e+003,2.000849e+002
1.303856e+003,2.007502e+002
1.305784e+003,1.996810e+002
1.307713e+003,1.978062e+002
1.309641e+003,1.948089e+002
1.311570e+003,1.867480e+002
1.313498e+003,1.779233e+002
1.315427e+003,1.801828e+002
1.317355e+003,1.978003e+002
1.319283e+003,2.175508e+002
1.321212e+003,2.476214e+002
1.323140e+003,2.706666e+002
1.325069e+003,2.756154e+002
1.326997e+003,2.632616e+002
1.328926e+003,2.418667e+002
1.330854e+003,2.013391e+002
1.332783e+003,1.682304e+002
1.334711e+003,1.494801e+002
1.336640e+003,1.380572e+002
1.338568e+003,1.265149e+002
1.340497e+003,1.153477e+002
1.342425e+003,1.127801e+002
1.344354e+003,1.238027e+002
1.346282e+003,1.353355e+002
1.348210e+003,1.461846e+002
1.350139e+003,1.524317e+002
1.352068e+003,1.477086e+002
1.353996e+003,1.312063e+002
1.355924e+003,1.166290e+002
1.357853e+003,1.056031e+002
1.359781e+003,9.725994e+001
1.361710e+003,9.188029e+001
1.363638e+003,8.864922e+001
1.365567e+003,8.616019e+001
1.367495e+003,8.500833e+001
1.369424e+003,8.300616e+001
1.371352e+003,7.879671e+001
1.373281e+003,7.515244e+001
1.375209e+003,7.249100e+001
1.377138e+003,7.138312e+001
1.379066e+003,7.404742e+001
1.380995e+003,8.375404e+001
1.382923e+003,9.074327e+001
1.384851e+003,9.223206e+001
1.386780e+003,9.283457e+001
1.388708e+003,9.395280e+001
1.390637e+003,9.641881e+001
1.392565e+003,1.030201e+002
1.394494e+003,1.138999e+002
1.396422e+003,1.283975e+002
1.398351e+003,1.489937e+002
1.400279e+003,1.708421e+002
1.402208e+003,1.903708e+002
1.404136e+003,2.082325e+002
1.406065e+003,2.276666e+002
1.407993e+003,2.510908e+002
1.409922e+003,2.691015e+002
1.411850e+003,2.803100e+002
1.413778e+003,2.837593e+002
1.415707e+003,2.767971e+002
1.417635e+003,2.604573e+002
1.419564e+003,2.448138e+002
1.421492e+003,2.304187e+002
1.423421e+003,2.161130e+002
1.425349e+003,2.001440e+002
1.427278e+003,1.851651e+002
1.429206e+003,1.724315e+002
1.431135e+003,1.619371e+002
1.433063e+003,1.566677e+002
1.434992e+003,1.584716e+002
1.436920e+003,1.630782e+002
1.438849e+003,1.753304e+002
1.440777e+003,1.859486e+002
1.442705e+003,1.868817e+002
1.444634e+003,1.784676e+002
1.446562e+003,1.679428e+002
1.448491e+003,1.546282e+002
1.450419e+003,1.406376e+002
1.452348e+003,1.241429e+002
1.454276e+003,1.088452e+002
1.456205e+003,9.796851e+001
1.458133e+003,9.112479e+001
1.460062e+003,8.626456e+001
1.461990e+003,8.381949e+001
1.463919e+003,8.202039e+001
1.465847e+003,7.907133e+001
1.467776e+003,7.779395e+001
1.469704e+003,8.156980e+001
1.471632e+003,8.879738e+001
1.473561e+003,9.389497e+001
1.475489e+003,9.602436e+001
1.477418e+003,9.794851e+001
1.479346e+003,9.967112e+001
1.481275e+003,1.021874e+002
1.483203e+003,1.063569e+002
1.485132e+003,1.117722e+002
1.487060e+003,1.175192e+002
1.488989e+003,1.248153e+002
1.490917e+003,1.281376e+002
1.492846e+003,1.244281e+002
1.494774e+003,1.185202e+002
1.496703e+003,1.122918e+002
1.498631e+003,1.057188e+002
1.500559e+003,9.851574e+001
1.502488e+003,8.983891e+001
1.504416e+003,8.293849e+001
1.506345e+003,7.766566e+001
1.508273e+003,7.453810e+001
1.510202e+003,7.445926e+001
1.512130e+003,7.641768e+001
1.514059e+003,7.884734e+001
1.515987e+003,8.274044e+001
1.517916e+003,8.408305e+001
1.519844e+003,8.062855e+001
1.521773e+003,7.776577e+001
1.523701e+003,7.737737e+001
1.525630e+003,7.833832e+001
1.527558e+003,7.896470e+001
1.529486e+003,7.901939e+001
1.531415e+003,8.090327e+001
1.533343e+003,8.633716e+001
1.535272e+003,9.109323e+001
1.537200e+003,9.382977e+001
1.539129e+003,9.591376e+001
1.541057e+003,9.892520e+001
1.542986e+003,1.026280e+002
1.544914e+003,1.050512e+002
1.546843e+003,1.067457e+002
1.548771e+003,1.059662e+002
1.550700e+003,1.004666e+002
1.552628e+003,9.423264e+001
1.554557e+003,8.889095e+001
1.556485e+003,8.484116e+001
1.558413e+003,8.307518e+001
1.560342e+003,8.372590e+001
1.562270e+003,8.570718e+001
1.564199e+003,8.885362e+001
1.566127e+003,9.324507e+001
1.568056e+003,1.013326e+002
1.569984e+003,1.093398e+002
1.571913e+003,1.107059e+002
1.573841e+003,1.058831e+002
1.575770e+003,1.064147e+002
1.577698e+003,1.152826e+002
1.579627e+003,1.255250e+002
1.581555e+003,1.362331e+002
1.583484e+003,1.458977e+002
1.585412e+003,1.532623e+002
1.587340e+003,1.586198e+002
1.589269e+003,1.627955e+002
1.591197e+003,1.652535e+002
1.593126e+003,1.691260e+002
1.595054e+003,1.787890e+002
1.596983e+003,1.852687e+002
1.598911e+003,1.820400e+002
1.600840e+003,1.731216e+002
1.602768e+003,1.656433e+002
1.604697e+003,1.595762e+002
1.606625e+003,1.553618e+002
1.608554e+003,1.531455e+002
1.610482e+003,1.526631e+002
1.612411e+003,1.555441e+002
1.614339e+003,1.587654e+002
1.616267e+003,1.600028e+002
1.618196e+003,1.593547e+002
1.620124e+003,1.569256e+002
1.622053e+003,1.519329e+002
1.623981e+003,1.475571e+002
1.625910e+003,1.443812e+002
1.627838e+003,1.418998e+002
1.629767e+003,1.394520e+002
1.631695e+003,1.376202e+002
1.633624e+003,1.377451e+002
1.635552e+003,1.400356e+002
1.637481e+003,1.427210e+002
1.639409e+003,1.477307e+002
1.641338e+003,1.497299e+002
1.643266e+003,1.477529e+002
1.645194e+003,1.422645e+002
1.647123e+003,1.318052e+002
1.649051e+003,1.176191e+002
1.650980e+003,1.070337e+002
1.652908e+003,1.009140e+002
1.654837e+003,9.573141e+001
1.656765e+003,9.131683e+001
1.658694e+003,8.750891e+001
1.660622e+003,8.287187e+001
1.662551e+003,7.973141e+001
1.664479e+003,8.231896e+001
1.666408e+003,9.112891e+001
1.668336e+003,9.516901e+001
1.670265e+003,8.938155e+001
1.672193e+003,8.906411e+001
1.674121e+003,1.012788e+002
1.676050e+003,1.139822e+002
1.677978e+003,1.210633e+002
1.679907e+003,1.239840e+002
1.681835e+003,1.262252e+002
1.683764e+003,1.286689e+002
1.685692e+003,1.252787e+002
1.687621e+003,1.111157e+002
1.689549e+003,9.858474e+001
1.691478e+003,8.949015e+001
1.693406e+003,8.362804e+001
1.695335e+003,8.236420e+001
1.697263e+003,8.422960e+001
1.699192e+003,8.437962e+001
1.701120e+003,8.262229e+001
1.703048e+003,7.983620e+001
1.704977e+003,7.353117e+001
1.706905e+003,6.962750e+001
1.708834e+003,7.197436e+001
1.710762e+003,7.517316e+001
1.712691e+003,7.367857e+001
1.714619e+003,6.873811e+001
1.716548e+003,6.741102e+001
1.718476e+003,7.145763e+001
1.720405e+003,7.337396e+001
1.722333e+003,7.038055e+001
1.724262e+003,6.812428e+001
1.726190e+003,6.940708e+001
1.728119e+003,7.122250e+001
1.730047e+003,6.994451e+001
1.731975e+003,6.623318e+001
1.733904e+003,6.558598e+001
1.735832e+003,6.922945e+001
1.737761e+003,7.170186e+001
1.739689e+003,7.117928e+001
1.741618e+003,7.109291e+001
1.743546e+003,7.352948e+001
1.745475e+003,7.616279e+001
1.747403e+003,7.651987e+001
1.749332e+003,7.488072e+001
1.751260e+003,7.316737e+001
1.753189e+003,7.085804e+001
1.755117e+003,7.090799e+001
1.757046e+003,7.692882e+001
1.758974e+003,8.037634e+001
1.760902e+003,7.564551e+001
1.762831e+003,6.926261e+001
1.764759e+003,6.692678e+001
1.766688e+003,6.799214e+001
1.768616e+003,6.992298e+001
1.770545e+003,7.302336e+001
1.772473e+003,7.446336e+001
1.774402e+003,7.264085e+001
1.776330e+003,7.112597e+001
1.778259e+003,7.239188e+001
1.780187e+003,7.349741e+001
1.782116e+003,7.064915e+001
1.784044e+003,6.605782e+001
1.785973e+003,6.666777e+001
1.787901e+003,7.303239e+001
1.789829e+003,7.757211e+001
1.791758e+003,7.926586e+001
1.793686e+003,7.919215e+001
1.795615e+003,7.691800e+001
1.797543e+003,7.387448e+001
1.799472e+003,7.046187e+001
1.801400e+003,6.722350e+001
1.803329e+003,6.521792e+001
1.805257e+003,6.442524e+001
1.807186e+003,6.406855e+001
1.809114e+003,6.364321e+001
1.811043e+003,6.494151e+001
1.812971e+003,7.048159e+001
1.814900e+003,7.544524e+001
1.816828e+003,7.682315e+001
1.818756e+003,7.624402e+001
1.820685e+003,7.617205e+001
1.822613e+003,7.636427e+001
1.824542e+003,7.429112e+001
1.826470e+003,6.847527e+001
1.828399e+003,6.540437e+001
1.830327e+003,6.814735e+001
1.832256e+003,7.105691e+001
1.834184e+003,7.243313e+001
1.836113e+003,7.280757e+001
1.838041e+003,7.241612e+001
1.839970e+003,7.148453e+001
1.841898e+003,7.058547e+001
1.843827e+003,6.927261e+001
1.845755e+003,6.978366e+001
1.847684e+003,7.436227e+001
1.849612e+003,7.744872e+001
1.851541e+003,7.730465e+001
1.853469e+003,7.610176e+001
1.855397e+003,7.499529e+001
1.857326e+003,7.372124e+001
1.859254e+003,7.130896e+001
1.861183e+003,6.772118e+001
1.863111e+003,6.696447e+001
1.865040e+003,7.159495e+001
1.866968e+003,7.347809e+001
1.868897e+003,7.075497e+001
1.870825e+003,6.703704e+001
1.872754e+003,5.998496e+001
1.874682e+003,5.554492e+001
1.876611e+003,6.153571e+001
1.878539e+003,7.363543e+001
1.880468e+003,7.915395e+001
1.882396e+003,7.780132e+001
1.884324e+003,7.443072e+001
1.886253e+003,6.767577e+001
1.888181e+003,6.377472e+001
1.890110e+003,6.530024e+001
1.892038e+003,6.840086e+001
1.893967e+003,7.267286e+001
1.895895e+003,7.632203e+001
1.897824e+003,7.781394e+001
1.899752e+003,7.715105e+001
1.901681e+003,7.270330e+001
1.903609e+003,6.394099e+001
1.905538e+003,6.242142e+001
1.907466e+003,7.364549e+001
1.909395e+003,8.159540e+001
1.911323e+003,7.874622e+001
1.913251e+003,7.450117e+001
1.915180e+003,7.333239e+001
1.917108e+003,7.408898e+001
1.919037e+003,7.621366e+001
1.920965e+003,7.916669e+001
1.922894e+003,7.928891e+001
1.924822e+003,7.512587e+001
1.926751e+003,7.377769e+001
1.928679e+003,7.891652e+001
1.930608e+003,8.179512e+001
1.932536e+003,7.834463e+001
1.934465e+003,7.508896e+001
1.936393e+003,7.712552e+001
1.938322e+003,8.052399e+001
1.940250e+003,7.923979e+001
1.942178e+003,7.413728e+001
1.944107e+003,7.155634e+001
1.946035e+003,7.173146e+001
1.947964e+003,7.381581e+001
1.949892e+003,8.017239e+001
1.951821e+003,8.362265e+001
1.953749e+003,8.024528e+001
1.955678e+003,7.650739e+001
1.957606e+003,7.609296e+001
1.959535e+003,7.643808e+001
1.961463e+003,7.328362e+001
1.963392e+003,6.864742e+001
1.965320e+003,7.001619e+001
1.967249e+003,7.765504e+001
1.969177e+003,8.283266e+001
1.971105e+003,8.445272e+001
1.973034e+003,8.412668e+001
1.974962e+003,7.944558e+001
1.976891e+003,7.699896e+001
1.978819e+003,8.335217e+001
1.980748e+003,9.006181e+001
1.982676e+003,8.799744e+001
1.984605e+003,8.059832e+001
1.986533e+003,7.589677e+001
1.988462e+003,7.395858e+001
1.990390e+003,7.346539e+001
1.992319e+003,7.484670e+001
1.994247e+003,7.696011e+001
1.996176e+003,8.167252e+001
1.998104e+003,8.449651e+001
2.000032e+003,8.246419e+001
2.001961e+003,8.019379e+001
2.003889e+003,8.065095e+001
2.005818e+003,8.266794e+001
2.007746e+003,8.542815e+001
2.009675e+003,8.839044e+001
2.011603e+003,8.743550e+001
2.013532e+003,8.198793e+001
2.015460e+003,8.054289e+001
2.017389e+003,8.584400e+001
2.019317e+003,8.892944e+001
2.021246e+003,8.657667e+001
2.023174e+003,8.316267e+001
2.025103e+003,7.732404e+001
2.027031e+003,7.463481e+001
2.028959e+003,8.474706e+001
2.030888e+003,9.922218e+001
2.032816e+003,9.958150e+001
2.034745e+003,8.697031e+001
2.036673e+003,8.198787e+001
2.038602e+003,8.856673e+001
2.040530e+003,9.120651e+001
2.042459e+003,8.653777e+001
2.044387e+003,8.267236e+001
2.046316e+003,8.017500e+001
2.048244e+003,7.962636e+001
2.050173e+003,8.352643e+001
2.052101e+003,8.743021e+001
2.054030e+003,8.624757e+001
2.055958e+003,8.220708e+001
2.057886e+003,8.067923e+001
2.059815e+003,8.136266e+001
2.061743e+003,8.061022e+001
2.063672e+003,7.783150e+001
2.065600e+003,7.786163e+001
2.067529e+003,8.301638e+001
2.069457e+003,8.643121e+001
2.071386e+003,8.494674e+001
2.073314e+003,8.282064e+001
2.075243e+003,8.179205e+001
2.077171e+003,8.138618e+001
2.079100e+003,8.127232e+001
2.081028e+003,8.143956e+001
2.082957e+003,8.209765e+001
2.084885e+003,8.314437e+001
2.086813e+003,8.312272e+001
2.088742e+003,8.123012e+001
2.090670e+003,8.070811e+001
2.092599e+003,8.311792e+001
2.094527e+003,8.365743e+001
2.096456e+003,7.952907e+001
2.098384e+003,7.658772e+001
2.100313e+003,7.784444e+001
2.102241e+003,7.998752e+001
2.104170e+003,8.296185e+001
2.106098e+003,8.407214e+001
2.108027e+003,7.609422e+001
2.109955e+003,6.393715e+001
2.111884e+003,6.442877e+001
2.113812e+003,7.766901e+001
2.115740e+003,8.554082e+001
2.117669e+003,8.647299e+001
2.119597e+003,8.407826e+001
2.121526e+003,7.190768e+001
2.123454e+003,6.693948e+001
2.125383e+003,8.065672e+001
2.127311e+003,9.228308e+001
2.129240e+003,8.864510e+001
2.131168e+003,8.154060e+001
2.133097e+003,8.205693e+001
2.135025e+003,8.609585e+001
2.136954e+003,8.631896e+001
2.138882e+003,8.338577e+001
2.140811e+003,7.963885e+001
2.142739e+003,7.517058e+001
2.144667e+003,7.547389e+001
2.146596e+003,8.258432e+001
2.148524e+003,8.697313e+001
2.150453e+003,8.578167e+001
2.152381e+003,8.364628e+001
2.154310e+003,8.042919e+001
2.156238e+003,7.856705e+001
2.158167e+003,8.020494e+001
2.160095e+003,8.284630e+001
2.162024e+003,8.483293e+001
2.163952e+003,8.598154e+001
2.165881e+003,8.556429e+001
2.167809e+003,8.392184e+001
2.169738e+003,8.284415e+001
2.171666e+003,8.229956e+001
2.173594e+003,8.338287e+001
2.175523e+003,8.685012e+001
2.177451e+003,8.703651e+001
2.179380e+003,8.115149e+001
2.181308e+003,7.735048e+001
2.183237e+003,7.931991e+001
2.185165e+003,8.203376e+001
2.187094e+003,8.488474e+001
2.189022e+003,8.605306e+001
2.190951e+003,8.183736e+001
2.192879e+003,7.703699e+001
2.194808e+003,7.896365e+001
2.196736e+003,8.491085e+001
2.198665e+003,8.723731e+001
2.200593e+003,8.603088e+001
2.202521e+003,8.573985e+001
2.204450e+003,8.649037e+001
2.206378e+003,8.628423e+001
2.208307e+003,8.447157e+001
2.210235e+003,8.425123e+001
2.212164e+003,8.735571e+001
2.214092e+003,8.959061e+001
2.216021e+003,8.863402e+001
2.217949e+003,8.775777e+001
2.219878e+003,8.913776e+001
2.221806e+003,9.041998e+001
2.223735e+003,8.892491e+001
2.225663e+003,8.684959e+001
2.227592e+003,8.773770e+001
2.229520e+003,9.020599e+001
2.231448e+003,9.053974e+001
2.233377e+003,8.888298e+001
2.235305e+003,8.610894e+001
2.237234e+003,8.222528e+001
2.239162e+003,7.967640e+001
2.241091e+003,7.873895e+001
2.243019e+003,7.898028e+001
2.244948e+003,8.119731e+001
2.246876e+003,8.254197e+001
2.248805e+003,7.935102e+001
2.250733e+003,7.917469e+001
2.252662e+003,8.954494e+001
2.254590e+003,9.809277e+001
2.256519e+003,9.510677e+001
2.258447e+003,8.846929e+001
2.260375e+003,8.528674e+001
2.262304e+003,8.424044e+001
2.264232e+003,8.303187e+001
2.266161e+003,8.204172e+001
2.268089e+003,8.314246e+001
2.270018e+003,8.586012e+001
2.271946e+003,8.552998e+001
2.273875e+003,8.135272e+001
2.275803e+003,7.969569e+001
2.277732e+003,8.219724e+001
2.279660e+003,8.455693e+001
2.281589e+003,8.720370e+001
2.283517e+003,8.854616e+001
2.285446e+003,8.835282e+001
2.287374e+003,8.679776e+001
2.289302e+003,8.101458e+001
2.291231e+003,7.751988e+001
2.293159e+003,8.220860e+001
2.295088e+003,8.817516e+001
2.297016e+003,8.972674e+001
2.298945e+003,8.881458e+001
2.300873e+003,8.791623e+001
2.302802e+003,8.670777e+001
2.304730e+003,8.359345e+001
2.306659e+003,7.912193e+001
2.308587e+003,7.830287e+001
2.310516e+003,8.199104e+001
2.312444e+003,8.104773e+001
2.314373e+003,7.340610e+001
2.316301e+003,7.474330e+001
2.318229e+003,9.004944e+001
2.320158e+003,9.832241e+001
2.322086e+003,9.262847e+001
2.324015e+003,8.718919e+001
2.325943e+003,8.751199e+001
2.327872e+003,8.739217e+001
2.329800e+003,8.116035e+001
2.331729e+003,7.802429e+001
2.333657e+003,8.808363e+001
2.335586e+003,9.846887e+001
2.337514e+003,9.642097e+001
2.339443e+003,8.968378e+001
2.341371e+003,8.790511e+001
2.343300e+003,8.861810e+001
2.345228e+003,8.635670e+001
2.347156e+003,8.263474e+001
2.349085e+003,8.250173e+001
2.351013e+003,8.579098e+001
2.352942e+003,8.928941e+001
2.354870e+003,9.338882e+001
2.356799e+003,9.523922e+001
2.358727e+003,9.366500e+001
2.360656e+003,9.339750e+001
2.362584e+003,9.542220e+001
2.364513e+003,9.597652e+001
2.366441e+003,9.365611e+001
2.368370e+003,9.208022e+001
2.370298e+003,9.329935e+001
2.372227e+003,9.343076e+001
2.374155e+003,8.936760e+001
2.376083e+003,8.586514e+001
2.378012e+003,8.520876e+001
2.379940e+003,8.617274e+001
2.381869e+003,8.924213e+001
2.383797e+003,9.212891e+001
2.385726e+003,9.143850e+001
2.387654e+003,8.997542e+001
2.389583e+003,9.304825e+001
2.391511e+003,9.766221e+001
2.393440e+003,9.603919e+001
2.395368e+003,9.096962e+001
2.397297e+003,9.351575e+001
2.399225e+003,1.029068e+002
2.401154e+003,1.082813e+002
2.403082e+003,1.089093e+002
2.405010e+003,1.112308e+002
2.406939e+003,1.157151e+002
2.408867e+003,1.197518e+002
2.410796e+003,1.235082e+002
2.412724e+003,1.246646e+002
2.414653e+003,1.205794e+002
2.416581e+003,1.222377e+002
2.418510e+003,1.346946e+002
2.420438e+003,1.483742e+002
2.422367e+003,1.646026e+002
2.424295e+003,1.755506e+002
2.426224e+003,1.745073e+002
2.428152e+003,1.729852e+002
2.430081e+003,1.803753e+002
2.432009e+003,1.838356e+002
2.433938e+003,1.725716e+002
2.435866e+003,1.586885e+002
2.437794e+003,1.515831e+002
2.439723e+003,1.471692e+002
2.441651e+003,1.414470e+002
2.443580e+003,1.350759e+002
2.445508e+003,1.277495e+002
2.447437e+003,1.211776e+002
2.449365e+003,1.209674e+002
2.451294e+003,1.246654e+002
2.453222e+003,1.215977e+002
2.455151e+003,1.140009e+002
2.457079e+003,1.135843e+002
2.459008e+003,1.197177e+002
2.460936e+003,1.206932e+002
2.462865e+003,1.153244e+002
2.464793e+003,1.115970e+002
2.466721e+003,1.091438e+002
2.468650e+003,1.098395e+002
2.470578e+003,1.149162e+002
2.472507e+003,1.179199e+002
2.474435e+003,1.179846e+002
2.476364e+003,1.166230e+002
2.478292e+003,1.130028e+002
2.480221e+003,1.112923e+002
2.482149e+003,1.146700e+002
2.484078e+003,1.166982e+002
2.486006e+003,1.160961e+002
2.487935e+003,1.137425e+002
2.489863e+003,1.068941e+002
2.491792e+003,1.027596e+002
2.493720e+003,1.060798e+002
2.495648e+003,1.094411e+002
2.497577e+003,1.084820e+002
2.499505e+003,1.065726e+002
2.501434e+003,1.041878e+002
2.503362e+003,1.038494e+002
2.505291e+003,1.105343e+002
2.507219e+003,1.174131e+002
2.509148e+003,1.157770e+002
2.511076e+003,1.118046e+002
2.513005e+003,1.142789e+002
2.514933e+003,1.184214e+002
2.516862e+003,1.153164e+002
2.518790e+003,1.101307e+002
2.520719e+003,1.142606e+002
2.522647e+003,1.234337e+002
2.524575e+003,1.260515e+002
2.526504e+003,1.236556e+002
2.528432e+003,1.230831e+002
2.530361e+003,1.234523e+002
2.532289e+003,1.176238e+002
2.534218e+003,1.074564e+002
2.536146e+003,1.070747e+002
2.538075e+003,1.166215e+002
2.540003e+003,1.186201e+002
2.541932e+003,1.114251e+002
2.543860e+003,1.108925e+002
2.545789e+003,1.191477e+002
2.547717e+003,1.190899e+002
2.549646e+003,1.090602e+002
2.551574e+003,1.037122e+002
2.553502e+003,1.049226e+002
2.555431e+003,1.075623e+002
2.557359e+003,1.127887e+002
2.559288e+003,1.139316e+002
2.561216e+003,1.066489e+002
2.563145e+003,1.023371e+002
2.565073e+003,1.013777e+002
2.567002e+003,1.044617e+002
2.568930e+003,1.133869e+002
2.570859e+003,1.213101e+002
2.572787e+003,1.278186e+002
2.574716e+003,1.302746e+002
2.576644e+003,1.242124e+002
2.578573e+003,1.200200e+002
2.580501e+003,1.215180e+002
2.582429e+003,1.234248e+002
2.584358e+003,1.253476e+002
2.586287e+003,1.255335e+002
2.588215e+003,1.222409e+002
2.590144e+003,1.190279e+002
2.592072e+003,1.167827e+002
2.594000e+003,1.161990e+002
2.595929e+003,1.179723e+002
2.597857e+003,1.210277e+002
2.599786e+003,1.271977e+002
2.601714e+003,1.311748e+002
2.603643e+003,1.276586e+002
2.605571e+003,1.243463e+002
2.607500e+003,1.280066e+002
2.609428e+003,1.317543e+002
2.611357e+003,1.286267e+002
2.613285e+003,1.257175e+002
2.615214e+003,1.325040e+002
2.617142e+003,1.380003e+002
2.619071e+003,1.270320e+002
2.620999e+003,1.165791e+002
2.622927e+003,1.261661e+002
2.624856e+003,1.384328e+002
2.626784e+003,1.342200e+002
2.628713e+003,1.247475e+002
2.630641e+003,1.202595e+002
2.632570e+003,1.201581e+002
2.634498e+003,1.276084e+002
2.636427e+003,1.354502e+002
2.638355e+003,1.322932e+002
2.640284e+003,1.266134e+002
2.642212e+003,1.315328e+002
2.644141e+003,1.393239e+002
2.646069e+003,1.381833e+002
2.647998e+003,1.322512e+002
2.649926e+003,1.253736e+002
2.651854e+003,1.205346e+002
2.653783e+003,1.255696e+002
2.655711e+003,1.340459e+002
2.657640e+003,1.351743e+002
2.659568e+003,1.328417e+002
2.661497e+003,1.341405e+002
2.663425e+003,1.374461e+002
2.665354e+003,1.399295e+002
2.667282e+003,1.416009e+002
2.669211e+003,1.421891e+002
2.671139e+003,1.420766e+002
2.673068e+003,1.412921e+002
2.674996e+003,1.408129e+002
2.676925e+003,1.436997e+002
2.678853e+003,1.481561e+002
2.680781e+003,1.502915e+002
2.682710e+003,1.504207e+002
2.684638e+003,1.481032e+002
2.686567e+003,1.450513e+002
2.688495e+003,1.448945e+002
2.690424e+003,1.468607e+002
2.692352e+003,1.499046e+002
2.694281e+003,1.532291e+002
2.696209e+003,1.542448e+002
2.698138e+003,1.540646e+002
2.700066e+003,1.554045e+002
2.701995e+003,1.577854e+002
2.703923e+003,1.604818e+002
2.705852e+003,1.630932e+002
2.707780e+003,1.658559e+002
2.709708e+003,1.672254e+002
2.711637e+003,1.606663e+002
2.713565e+003,1.511795e+002
2.715494e+003,1.524229e+002
2.717422e+003,1.587818e+002
2.719351e+003,1.591373e+002
2.721279e+003,1.558690e+002
2.723208e+003,1.540005e+002
2.725136e+003,1.523976e+002
2.727065e+003,1.465654e+002
2.728993e+003,1.403292e+002
2.730922e+003,1.425576e+002
2.732850e+003,1.489963e+002
2.734779e+003,1.537282e+002
2.736707e+003,1.564387e+002
2.738635e+003,1.551376e+002
2.740564e+003,1.525488e+002
2.742492e+003,1.534974e+002
2.744421e+003,1.565850e+002
2.746349e+003,1.603795e+002
2.748278e+003,1.642221e+002
2.750206e+003,1.675065e+002
2.752135e+003,1.698084e+002
2.754063e+003,1.710135e+002
2.755992e+003,1.703469e+002
2.757920e+003,1.641813e+002
2.759849e+003,1.582354e+002
2.761777e+003,1.618939e+002
2.763706e+003,1.662266e+002
2.765634e+003,1.586362e+002
2.767563e+003,1.490019e+002
2.769491e+003,1.473696e+002
2.771419e+003,1.497652e+002
2.773348e+003,1.545677e+002
2.775276e+003,1.588783e+002
2.777205e+003,1.595750e+002
2.779133e+003,1.592525e+002
2.781062e+003,1.590754e+002
2.782990e+003,1.600547e+002
2.784919e+003,1.637640e+002
2.786847e+003,1.678567e+002
2.788776e+003,1.698345e+002
2.790704e+003,1.731490e+002
2.792633e+003,1.853387e+002
2.794561e+003,1.920279e+002
2.796490e+003,1.767219e+002
2.798418e+003,1.666151e+002
2.800346e+003,1.770073e+002
2.802275e+003,1.887204e+002
2.804203e+003,1.940866e+002
2.806132e+003,1.962064e+002
2.808060e+003,1.904631e+002
2.809989e+003,1.913875e+002
2.811917e+003,2.086853e+002
2.813846e+003,2.204098e+002
2.815774e+003,2.180128e+002
2.817703e+003,2.140046e+002
2.819631e+003,2.118937e+002
2.821560e+003,2.093775e+002
2.823488e+003,2.049257e+002
2.825417e+003,2.032570e+002
2.827345e+003,2.057432e+002
2.829273e+003,2.083216e+002
2.831202e+003,2.106706e+002
2.833130e+003,2.114680e+002
2.835059e+003,2.086072e+002
2.836987e+003,2.093376e+002
2.838916e+003,2.143631e+002
2.840844e+003,2.191296e+002
2.842773e+003,2.233953e+002
2.844701e+003,2.237546e+002
2.846630e+003,2.187940e+002
2.848558e+003,2.186563e+002
2.850487e+003,2.236696e+002
2.852415e+003,2.268507e+002
2.854344e+003,2.284115e+002
2.856272e+003,2.313870e+002
2.858200e+003,2.356075e+002
2.860129e+003,2.386044e+002
2.862057e+003,2.407453e+002
2.863986e+003,2.437984e+002
2.865914e+003,2.479454e+002
2.867843e+003,2.535296e+002
2.869771e+003,2.608314e+002
2.871700e+003,2.727898e+002
2.873628e+003,2.852469e+002
2.875557e+003,2.896451e+002
2.877485e+003,2.896386e+002
2.879414e+003,2.917129e+002
2.881342e+003,2.919079e+002
2.883271e+003,2.844113e+002
2.885199e+003,2.743826e+002
2.887127e+003,2.639832e+002
2.889056e+003,2.572229e+002
2.890984e+003,2.607389e+002
2.892913e+003,2.641240e+002
2.894841e+003,2.576302e+002
2.896770e+003,2.538267e+002
2.898698e+003,2.626329e+002
2.900627e+003,2.704871e+002
2.902555e+003,2.681116e+002
2.904484e+003,2.727080e+002
2.906412e+003,2.903557e+002
2.908341e+003,3.139123e+002
2.910269e+003,3.384556e+002
2.912198e+003,3.732502e+002
2.914126e+003,4.116588e+002
2.916054e+003,4.826456e+002
2.917983e+003,5.859014e+002
2.919911e+003,7.518891e+002
2.921840e+003,1.008003e+003
2.923768e+003,1.247608e+003
2.925697e+003,1.483703e+003
2.927625e+003,1.538320e+003
2.929554e+003,1.421947e+003
2.931482e+003,1.270224e+003
2.933411e+003,1.100534e+003
2.935339e+003,9.833491e+002
2.937268e+003,9.227659e+002
2.939196e+003,9.574357e+002
2.941125e+003,1.054443e+003
2.943053e+003,1.151303e+003
2.944981e+003,1.241229e+003
2.946910e+003,1.313487e+003
2.948838e+003,1.372066e+003
2.950767e+003,1.434195e+003
2.952695e+003,1.470341e+003
2.954624e+003,1.471646e+003
2.956552e+003,1.417263e+003
2.958481e+003,1.272084e+003
2.960409e+003,1.094955e+003
2.962338e+003,8.899485e+002
2.964266e+003,7.065868e+002
2.966195e+003,5.576536e+002
2.968123e+003,4.422081e+002
2.970052e+003,3.606406e+002
2.971980e+003,3.145893e+002
2.973908e+003,3.098888e+002
2.975837e+003,3.139590e+002
2.977765e+003,3.209761e+002
2.979694e+003,3.578781e+002
2.981622e+003,4.401119e+002
2.983551e+003,4.862952e+002
2.985479e+003,4.961454e+002
2.987408e+003,4.598638e+002
2.989336e+003,3.873697e+002
2.991265e+003,3.286317e+002
2.993193e+003,2.830760e+002
2.995122e+003,2.463750e+002
2.997050e+003,2.193530e+002
2.998979e+003,2.073114e+002
3.000907e+003,2.028362e+002
3.002835e+003,1.974975e+002
3.004764e+003,1.933678e+002
3.006692e+003,1.948681e+002
3.008621e+003,1.949297e+002
3.010549e+003,1.871469e+002
3.012478e+003,1.798174e+002
3.014406e+003,1.781255e+002
3.016335e+003,1.761198e+002
3.018263e+003,1.687215e+002
3.020192e+003,1.677212e+002
3.022120e+003,1.771673e+002
3.024049e+003,1.826077e+002
3.025977e+003,1.807498e+002
3.027906e+003,1.771423e+002
3.029834e+003,1.717141e+002
3.031762e+003,1.673321e+002
3.033691e+003,1.640454e+002
3.035619e+003,1.613689e+002
3.037548e+003,1.599611e+002
3.039476e+003,1.646483e+002
3.041405e+003,1.718982e+002
3.043333e+003,1.724635e+002
3.045262e+003,1.696936e+002
3.047190e+003,1.662276e+002
3.049119e+003,1.643245e+002
3.051047e+003,1.683718e+002
3.052976e+003,1.718365e+002
3.054904e+003,1.712792e+002
3.056833e+003,1.678169e+002
3.058761e+003,1.592708e+002
3.060689e+003,1.530057e+002
3.062618e+003,1.503494e+002
3.064546e+003,1.527572e+002
3.066475e+003,1.619307e+002
3.068403e+003,1.663221e+002
3.070332e+003,1.625193e+002
3.072260e+003,1.654916e+002
3.074189e+003,1.750665e+002
3.076117e+003,1.743151e+002
3.078046e+003,1.657974e+002
3.079974e+003,1.585224e+002
3.081903e+003,1.546129e+002
3.083831e+003,1.638483e+002
3.085760e+003,1.742780e+002
3.087688e+003,1.655669e+002
3.089616e+003,1.559372e+002
3.091545e+003,1.622469e+002
3.093473e+003,1.699760e+002
3.095402e+003,1.742366e+002
3.097330e+003,1.707357e+002
3.099259e+003,1.519362e+002
3.101187e+003,1.426820e+002
3.103116e+003,1.574693e+002
3.105044e+003,1.642034e+002
3.106973e+003,1.607930e+002
3.108901e+003,1.663723e+002
3.110830e+003,1.807798e+002
3.112758e+003,1.780969e+002
3.114687e+003,1.633310e+002
3.116615e+003,1.632821e+002
3.118543e+003,1.703318e+002
3.120472e+003,1.680589e+002
3.122400e+003,1.640188e+002
3.124329e+003,1.696722e+002
3.126257e+003,1.740750e+002
3.128186e+003,1.657460e+002
3.130114e+003,1.602984e+002
3.132043e+003,1.663626e+002
3.133971e+003,1.744544e+002
3.135900e+003,1.842585e+002
3.137828e+003,1.901476e+002
3.139757e+003,1.909538e+002
3.141685e+003,1.936377e+002
3.143614e+003,1.988995e+002
3.145542e+003,2.031395e+002
3.147470e+003,2.064017e+002
3.149399e+003,2.065418e+002
3.151327e+003,2.082002e+002
3.153256e+003,2.246698e+002
3.155184e+003,2.435889e+002
3.157113e+003,2.459064e+002
3.159041e+003,2.480222e+002
3.160970e+003,2.612150e+002
3.162898e+003,2.769247e+002
3.164827e+003,2.952146e+002
3.166755e+003,3.072363e+002
3.168684e+003,3.110010e+002
3.170612e+003,3.122927e+002
3.172541e+003,3.118790e+002
3.174469e+003,3.098040e+002
3.176397e+003,3.062798e+002
3.178326e+003,3.114704e+002
3.180254e+003,3.207389e+002
3.182183e+003,3.177870e+002
3.184111e+003,3.119901e+002
3.186040e+003,3.194064e+002
3.187968e+003,3.306755e+002
3.189897e+003,3.420264e+002
3.191825e+003,3.474836e+002
3.193754e+003,3.348331e+002
3.195682e+003,3.341898e+002
3.197611e+003,3.567613e+002
3.199539e+003,3.702250e+002
3.201468e+003,3.680875e+002
3.203396e+003,3.703597e+002
3.205324e+003,3.778068e+002
3.207253e+003,3.780734e+002
3.209181e+003,3.724640e+002
3.211110e+003,3.634823e+002
3.213038e+003,3.536367e+002
3.214967e+003,3.472299e+002
3.216895e+003,3.410426e+002
3.218824e+003,3.308091e+002
3.220752e+003,3.230218e+002
3.222681e+003,3.263036e+002
3.224609e+003,3.211805e+002
3.226538e+003,3.020212e+002
3.228466e+003,2.852575e+002
3.230395e+003,2.729132e+002
3.232323e+003,2.640822e+002
3.234251e+003,2.586550e+002
3.236180e+003,2.590709e+002
3.238108e+003,2.610063e+002
3.240037e+003,2.531070e+002
3.241965e+003,2.445862e+002
3.243894e+003,2.484639e+002
3.245822e+003,2.526463e+002
3.247751e+003,2.492133e+002
3.249679e+003,2.469508e+002
3.251608e+003,2.488861e+002
3.253536e+003,2.537817e+002
3.255465e+003,2.623102e+002
3.257393e+003,2.614023e+002
3.259322e+003,2.511902e+002
3.261250e+003,2.510112e+002
3.263178e+003,2.578215e+002
3.265107e+003,2.644770e+002
3.267035e+003,2.696309e+002
3.268964e+003,2.727366e+002
3.270892e+003,2.719336e+002
3.272821e+003,2.630951e+002
3.274749e+003,2.560940e+002
3.276678e+003,2.559179e+002
3.278606e+003,2.515875e+002
3.280535e+003,2.383049e+002
3.282463e+003,2.434541e+002
3.284392e+003,2.634134e+002
3.286320e+003,2.594649e+002
3.288249e+003,2.422178e+002
3.290177e+003,2.413877e+002
3.292105e+003,2.447630e+002
3.294034e+003,2.366719e+002
3.295962e+003,2.304622e+002
3.297891e+003,2.384372e+002
3.299819e+003,2.424410e+002
3.301748e+003,2.377414e+002
3.303676e+003,2.316558e+002
3.305605e+003,2.242837e+002
3.307533e+003,2.228673e+002
3.309462e+003,2.269391e+002
3.311390e+003,2.380369e+002
3.313319e+003,2.485692e+002
3.315247e+003,2.429898e+002
3.317176e+003,2.329015e+002
3.319104e+003,2.268315e+002
3.321032e+003,2.229791e+002
3.322961e+003,2.236382e+002
3.324889e+003,2.191808e+002
3.326818e+003,2.067607e+002
3.328746e+003,2.030639e+002
3.330675e+003,2.080856e+002
3.332603e+003,2.008672e+002
3.334532e+003,1.871795e+002
3.336460e+003,1.838495e+002
3.338389e+003,1.859510e+002
3.340317e+003,1.939949e+002
3.342246e+003,1.957355e+002
3.344174e+003,1.797038e+002
3.346103e+003,1.677285e+002
3.348031e+003,1.655014e+002
3.349959e+003,1.639414e+002
3.351888e+003,1.622663e+002
3.353816e+003,1.595113e+002
3.355745e+003,1.568239e+002
3.357673e+003,1.573750e+002
3.359602e+003,1.602645e+002
3.361530e+003,1.669067e+002
3.363459e+003,1.712943e+002
3.365387e+003,1.679929e+002
3.367316e+003,1.655040e+002
3.369244e+003,1.652702e+002
3.371173e+003,1.686380e+002
3.373101e+003,1.757282e+002
3.375030e+003,1.852920e+002
3.376958e+003,1.972681e+002
3.378886e+003,2.137230e+002
3.380815e+003,2.307595e+002
3.382743e+003,2.411715e+002
3.384672e+003,2.544931e+002
3.386600e+003,2.739681e+002
3.388529e+003,3.051245e+002
3.390457e+003,3.530794e+002
3.392386e+003,3.906535e+002
3.394314e+003,4.158508e+002
3.396243e+003,4.297051e+002
3.398171e+003,4.349954e+002
3.400100e+003,4.456960e+002
3.402028e+003,4.455054e+002
3.403957e+003,4.040892e+002
3.405885e+003,3.661248e+002
3.407813e+003,3.578557e+002
3.409742e+003,3.361964e+002
3.411670e+003,2.895897e+002
3.413599e+003,2.615559e+002
3.415527e+003,2.494435e+002
3.417456e+003,2.222608e+002
3.419384e+003,1.905148e+002
3.421313e+003,1.744490e+002
3.423241e+003,1.654993e+002
3.425170e+003,1.613283e+002
3.427098e+003,1.546417e+002
3.429027e+003,1.415767e+002
3.430955e+003,1.338773e+002
3.432884e+003,1.330005e+002
3.434812e+003,1.282799e+002
3.436740e+003,1.209577e+002
3.438669e+003,1.143320e+002
3.440597e+003,1.109839e+002
3.442526e+003,1.179563e+002
3.444454e+003,1.219093e+002
3.446383e+003,1.156802e+002
3.448311e+003,1.097161e+002
3.450240e+003,1.056361e+002
3.452168e+003,1.066286e+002
3.454097e+003,1.110954e+002
3.456025e+003,1.066294e+002
3.457954e+003,9.988957e+001
3.459882e+003,1.017690e+002
3.461811e+003,1.050437e+002
3.463739e+003,1.080143e+002
3.465667e+003,1.045467e+002
3.467596e+003,8.563170e+001
3.469524e+003,8.198051e+001
3.471453e+003,9.171251e+001
3.473381e+003,9.630842e+001
3.475310e+003,9.564462e+001
3.477238e+003,8.472596e+001
3.479167e+003,7.674095e+001
3.481095e+003,8.368893e+001
3.483024e+003,9.213613e+001
3.484952e+003,1.007015e+002
3.486881e+003,9.743252e+001
3.488809e+003,8.310447e+001
3.490738e+003,8.676732e+001
3.492666e+003,9.977884e+001
3.494594e+003,1.012329e+002
3.496523e+003,9.800931e+001
3.498451e+003,9.517171e+001
3.500380e+003,8.913425e+001
3.502308e+003,7.657210e+001
3.504237e+003,7.611266e+001
3.506165e+003,9.010560e+001
3.508094e+003,8.885889e+001
3.510022e+003,8.021702e+001
3.511951e+003,8.580404e+001
3.513879e+003,9.142894e+001
3.515808e+003,8.132827e+001
3.517736e+003,7.479482e+001
3.519665e+003,7.756586e+001
3.521593e+003,8.119231e+001
3.523521e+003,8.474179e+001
3.525450e+003,8.415860e+001
3.527378e+003,8.249292e+001
3.529307e+003,8.784256e+001
3.531235e+003,9.170652e+001
3.533164e+003,8.621114e+001
3.535092e+003,8.073471e+001
3.537021e+003,7.656397e+001
3.538949e+003,8.062199e+001
3.540878e+003,9.100034e+001
3.542806e+003,8.725112e+001
3.544735e+003,7.717996e+001
3.546663e+003,7.007544e+001
3.548592e+003,6.822937e+001
3.550520e+003,7.497864e+001
3.552448e+003,8.069153e+001
3.554377e+003,8.347500e+001
3.556305e+003,8.412891e+001
3.558234e+003,8.190127e+001
3.560162e+003,7.012624e+001
3.562091e+003,5.950802e+001
3.564019e+003,6.647363e+001
3.565948e+003,7.508649e+001
3.567876e+003,7.900595e+001
3.569805e+003,8.081823e+001
3.571733e+003,8.080427e+001
3.573662e+003,7.833287e+001
3.575590e+003,7.475458e+001
3.577519e+003,7.198378e+001
3.579447e+003,7.225930e+001
3.581376e+003,7.983078e+001
3.583304e+003,8.560672e+001
3.585233e+003,8.743449e+001
3.587161e+003,8.477475e+001
3.589090e+003,7.849230e+001
3.591018e+003,7.709242e+001
3.592947e+003,7.736665e+001
3.594875e+003,7.353217e+001
3.596803e+003,7.057114e+001
3.598732e+003,7.216025e+001
3.600660e+003,7.251897e+001
3.602589e+003,7.108849e+001
3.604517e+003,8.133704e+001
3.606446e+003,9.374000e+001
3.608374e+003,6.788193e+001
3.610303e+003,4.259505e+001
3.612231e+003,5.407614e+001
3.614160e+003,6.891548e+001
3.616088e+003,8.016635e+001
3.618017e+003,8.416499e+001
3.619945e+003,8.175450e+001
3.621874e+003,7.847247e+001
3.623802e+003,7.629501e+001
3.625730e+003,7.925749e+001
3.627659e+003,8.057301e+001
3.629587e+003,7.564580e+001
3.631516e+003,7.566988e+001
3.633444e+003,8.202235e+001
3.635373e+003,8.393439e+001
3.637301e+003,8.205715e+001
3.639230e+003,7.407612e+001
3.641158e+003,6.951052e+001
3.643087e+003,7.940689e+001
3.645015e+003,8.410834e+001
3.646944e+003,8.069434e+001
3.648872e+003,7.394323e+001
3.650801e+003,6.687516e+001
3.652729e+003,7.098292e+001
3.654657e+003,7.696817e+001
3.656586e+003,7.747960e+001
3.658514e+003,7.670980e+001
3.660443e+003,7.531819e+001
3.662371e+003,7.642205e+001
3.664300e+003,7.913130e+001
3.666228e+003,7.803918e+001
3.668157e+003,7.551646e+001
3.670085e+003,7.562150e+001
3.672014e+003,7.026598e+001
3.673942e+003,5.464891e+001
3.675871e+003,5.762333e+001
3.677799e+003,7.710509e+001
3.679728e+003,7.886732e+001
3.681656e+003,7.345179e+001
3.683584e+003,7.095540e+001
3.685513e+003,7.243298e+001
3.687441e+003,7.938203e+001
3.689370e+003,8.164275e+001
3.691298e+003,7.888297e+001
3.693227e+003,8.206264e+001
3.695155e+003,8.567152e+001
3.697084e+003,8.221010e+001
3.699012e+003,7.666084e+001
3.700941e+003,7.000917e+001
3.702869e+003,6.698524e+001
3.704798e+003,6.819319e+001
3.706726e+003,7.557454e+001
3.708655e+003,8.247942e+001
3.710583e+003,7.699146e+001
3.712511e+003,7.332463e+001
3.714440e+003,7.968797e+001
3.716368e+003,7.782625e+001
3.718297e+003,6.704579e+001
3.720225e+003,6.783366e+001
3.722154e+003,7.425526e+001
3.724082e+003,8.023405e+001
3.726011e+003,8.279926e+001
3.727939e+003,7.960757e+001
3.729868e+003,7.817287e+001
3.731796e+003,7.870850e+001
3.733725e+003,7.447397e+001
3.735653e+003,6.993507e+001
3.737582e+003,7.149867e+001
3.739510e+003,7.370913e+001
3.741438e+003,7.476164e+001
3.743367e+003,7.467740e+001
3.745295e+003,7.369962e+001
3.747224e+003,7.486092e+001
3.749152e+003,7.447585e+001
3.751081e+003,6.357460e+001
3.753009e+003,6.109705e+001
3.754938e+003,7.540255e+001
3.756866e+003,8.366946e+001
3.758795e+003,8.452164e+001
3.760723e+003,7.515838e+001
3.762652e+003,6.664003e+001
3.764580e+003,7.076681e+001
3.766509e+003,7.403494e+001
3.768437e+003,7.318419e+001
3.770365e+003,7.282585e+001
3.772294e+003,7.300713e+001
3.774222e+003,7.280773e+001
3.776151e+003,7.353564e+001
3.778079e+003,7.856281e+001
3.780008e+003,7.700504e+001
3.781936e+003,6.725268e+001
3.783865e+003,6.519031e+001
3.785793e+003,6.741628e+001
3.787722e+003,6.532104e+001
3.789650e+003,6.618151e+001
3.791579e+003,7.691949e+001
3.793507e+003,7.992570e+001
3.795436e+003,7.453278e+001
3.797364e+003,6.800905e+001
3.799292e+003,6.401500e+001
3.801221e+003,7.035992e+001
3.803149e+003,7.575526e+001
3.805078e+003,7.607369e+001
3.807006e+003,7.620937e+001
3.808935e+003,7.620531e+001
3.810863e+003,7.526031e+001
3.812792e+003,7.331910e+001
3.814720e+003,6.836031e+001
3.816649e+003,6.813678e+001
3.818577e+003,7.599837e+001
3.820506e+003,7.416141e+001
3.822434e+003,6.757069e+001
3.824363e+003,6.600930e+001
3.826291e+003,6.638573e+001
3.828219e+003,6.779679e+001
3.830148e+003,6.659467e+001
3.832076e+003,6.303843e+001
3.834005e+003,6.578943e+001
3.835933e+003,7.106203e+001
3.837862e+003,7.772273e+001
3.839790e+003,7.648890e+001
3.841719e+003,6.409830e+001
3.843647e+003,6.776220e+001
3.845576e+003,8.097897e+001
3.847504e+003,8.091677e+001
3.849433e+003,7.810720e+001
3.851361e+003,8.034348e+001
3.853290e+003,7.734061e+001
3.855218e+003,6.944516e+001
3.857146e+003,7.218001e+001
3.859075e+003,7.861019e+001
3.861003e+003,8.034441e+001
3.862932e+003,7.850372e+001
3.864860e+003,7.132015e+001
3.866789e+003,7.269160e+001
3.868717e+003,7.888844e+001
3.870646e+003,7.776321e+001
3.872574e+003,7.385126e+001
3.874503e+003,6.831385e+001
3.876431e+003,6.846336e+001
3.878360e+003,7.425845e+001
3.880288e+003,7.136480e+001
3.882217e+003,6.543015e+001
3.884145e+003,6.142047e+001
3.886073e+003,6.192128e+001
3.888002e+003,6.906146e+001
3.889930e+003,6.920615e+001
3.891859e+003,6.647458e+001
3.893787e+003,7.515527e+001
3.895716e+003,8.021348e+001
3.897644e+003,7.186426e+001
3.899573e+003,6.772278e+001
3.901501e+003,6.874083e+001
3.903430e+003,6.412254e+001
3.905358e+003,6.092389e+001
3.907287e+003,6.799744e+001
3.909215e+003,7.413149e+001
3.911144e+003,7.733692e+001
3.913072e+003,7.815747e+001
3.915000e+003,7.663778e+001
3.916929e+003,6.935365e+001
3.918857e+003,6.717548e+001
3.920786e+003,7.817157e+001
3.922714e+003,7.780133e+001
3.924643e+003,7.009919e+001
3.926571e+003,7.246768e+001
3.928500e+003,7.299992e+001
3.930428e+003,6.128549e+001
3.932357e+003,6.017590e+001
3.934285e+003,6.974261e+001
3.936214e+003,7.379833e+001
3.938142e+003,7.353555e+001
3.940071e+003,6.682436e+001
3.941999e+003,6.454707e+001
3.943927e+003,6.952548e+001
3.945856e+003,7.358435e+001
3.947784e+003,7.475434e+001
3.949713e+003,6.709679e+001
3.951641e+003,6.426582e+001
3.953570e+003,7.068964e+001
3.955498e+003,6.861433e+001
3.957427e+003,6.174854e+001
3.959355e+003,6.046154e+001
3.961284e+003,6.288731e+001
3.963212e+003,7.148185e+001
3.965141e+003,7.047717e+001
3.967069e+003,6.243678e+001
3.968998e+003,6.019665e+001
3.970926e+003,6.310270e+001
3.972854e+003,7.411219e+001
3.974783e+003,7.658139e+001
3.976711e+003,7.105739e+001
3.978640e+003,7.477052e+001
3.980568e+003,7.871009e+001
3.982497e+003,7.280051e+001
3.984425e+003,6.907708e+001
3.986354e+003,6.990380e+001
3.988282e+003,7.036730e+001
3.990211e+003,6.995941e+001
3.992139e+003,6.577259e+001
3.994068e+003,6.699487e+001
3.995996e+003,7.559409e+001
3.997925e+003,7.325444e+001
3.999853e+003,6.634452e+001
4.001781e+003,6.483044e+001
4.003710e+003,6.712995e+001
4.005638e+003,7.318689e+001
4.007567e+003,7.639906e+001
4.009495e+003,7.698462e+001
4.011424e+003,7.424752e+001
4.013352e+003,7.238988e+001
4.015281e+003,7.591852e+001
4.017209e+003,6.850282e+001
4.019138e+003,5.728379e+001
4.021066e+003,6.272378e+001
4.022995e+003,6.767886e+001
4.024923e+003,6.430144e+001
4.026852e+003,5.959521e+001
4.028780e+003,5.601698e+001
4.030708e+003,6.201496e+001
4.032637e+003,6.706922e+001
4.034565e+003,6.436282e+001
4.036494e+003,6.686726e+001
4.038422e+003,7.260171e+001
4.040351e+003,6.789629e+001
4.042279e+003,6.155081e+001
4.044208e+003,5.759629e+001
4.046136e+003,5.925025e+001
4.048065e+003,6.469350e+001
4.049993e+003,6.667734e+001
4.051922e+003,6.594760e+001
4.053850e+003,6.192336e+001
4.055779e+003,6.209073e+001
4.057707e+003,6.578141e+001
4.059635e+003,6.555350e+001
4.061564e+003,6.635345e+001
4.063492e+003,7.297876e+001
4.065421e+003,7.287196e+001
4.067349e+003,6.678864e+001
4.069278e+003,6.529018e+001
4.071206e+003,6.694772e+001
4.073135e+003,7.446625e+001
4.075063e+003,7.351934e+001
4.076992e+003,6.586187e+001
4.078920e+003,6.476146e+001
4.080849e+003,6.515343e+001
4.082777e+003,6.312527e+001
4.084706e+003,6.468314e+001
4.086634e+003,6.852644e+001
4.088563e+003,6.695444e+001
4.090491e+003,6.581835e+001
4.092419e+003,6.890092e+001
4.094348e+003,7.086430e+001
4.096276e+003,7.065633e+001
4.098205e+003,6.262663e+001
4.100133e+003,5.779107e+001
4.102062e+003,6.459035e+001
4.103990e+003,6.301356e+001
4.105919e+003,5.642530e+001
4.107847e+003,6.083009e+001
4.109776e+003,6.645435e+001
4.111704e+003,6.847615e+001
4.113633e+003,6.894841e+001
4.115561e+003,6.884832e+001
4.117490e+003,7.232843e+001
4.119418e+003,7.171901e+001
4.121347e+003,6.344072e+001
4.123275e+003,5.801445e+001
4.125204e+003,5.693588e+001
4.127132e+003,6.532879e+001
4.129061e+003,6.949166e+001
4.130989e+003,6.570196e+001
4.132917e+003,5.544868e+001
4.134846e+003,4.863064e+001
4.136774e+003,6.570224e+001
4.138703e+003,7.525918e+001
4.140631e+003,6.934630e+001
4.142560e+003,6.615034e+001
4.144488e+003,6.517772e+001
4.146417e+003,6.723091e+001
4.148345e+003,6.566106e+001
4.150273e+003,5.991992e+001
4.152202e+003,6.636797e+001
4.154130e+003,7.339928e+001
4.156059e+003,6.890998e+001
4.157987e+003,6.472898e+001
4.159916e+003,6.273013e+001
4.161844e+003,6.790893e+001
4.163773e+003,7.188329e+001
4.165701e+003,6.697173e+001
4.167630e+003,6.765513e+001
4.169558e+003,7.140990e+001
4.171487e+003,6.855676e+001
4.173415e+003,6.383018e+001
4.175344e+003,5.886705e+001
4.177272e+003,5.929652e+001
4.179201e+003,6.160616e+001
4.181129e+003,5.619167e+001
4.183058e+003,5.692958e+001
4.184986e+003,6.666726e+001
4.186915e+003,6.495083e+001
4.188843e+003,5.923146e+001
4.190771e+003,5.765047e+001
4.192700e+003,6.193096e+001
4.194628e+003,7.100690e+001
4.196557e+003,6.886329e+001
4.198485e+003,6.448749e+001
4.200414e+003,6.402065e+001
4.202342e+003,6.766271e+001
4.204271e+003,7.258012e+001
4.206199e+003,6.390833e+001
4.208127e+003,5.729317e+001
4.210056e+003,6.113145e+001
4.211984e+003,6.396741e+001
4.213913e+003,6.524848e+001
4.215841e+003,6.434860e+001
4.217770e+003,6.327776e+001
4.219698e+003,6.261012e+001
4.221627e+003,6.118018e+001
4.223555e+003,6.025035e+001
4.225484e+003,6.303760e+001
4.227412e+003,6.143988e+001
4.229341e+003,5.535321e+001
4.231269e+003,4.971456e+001
4.233198e+003,4.858740e+001
4.235126e+003,5.735396e+001
4.237055e+003,6.501229e+001
4.238983e+003,6.943280e+001
4.240912e+003,6.367569e+001
4.242840e+003,6.162778e+001
4.244769e+003,6.911395e+001
4.246697e+003,6.413291e+001
4.248625e+003,5.719866e+001
4.250554e+003,5.941910e+001
