1.159199e+002,4.515513e+001
1.178484e+002,5.392605e+001
1.197769e+002,6.894415e+001
1.217053e+002,9.087540e+001
1.236338e+002,1.042993e+002
1.255623e+002,1.064365e+002
1.274907e+002,1.015854e+002
1.294192e+002,9.430276e+001
1.313477e+002,8.161047e+001
1.332761e+002,6.978193e+001
1.352046e+002,6.052240e+001
1.371331e+002,5.416662e+001
1.390615e+002,4.912609e+001
1.409900e+002,4.531666e+001
1.429185e+002,4.274812e+001
1.448469e+002,4.188670e+001
1.467754e+002,4.484319e+001
1.487039e+002,4.759483e+001
1.506323e+002,4.817653e+001
1.525608e+002,4.657396e+001
1.544893e+002,4.483393e+001
1.564177e+002,4.272754e+001
1.583462e+002,4.060115e+001
1.602747e+002,4.063120e+001
1.622031e+002,4.337934e+001
1.641316e+002,4.728140e+001
1.660601e+002,5.158155e+001
1.679885e+002,5.702972e+001
1.699170e+002,6.142750e+001
1.718455e+002,6.478046e+001
1.737739e+002,6.695585e+001
1.757024e+002,6.749810e+001
1.776309e+002,6.494078e+001
1.795593e+002,6.155988e+001
1.814878e+002,5.929074e+001
1.834163e+002,6.028639e+001
1.853447e+002,6.018754e+001
1.872732e+002,5.690575e+001
1.892017e+002,5.082405e+001
1.911301e+002,4.749037e+001
1.930586e+002,4.928888e+001
1.949871e+002,5.368874e+001
1.969155e+002,5.786113e+001
1.988440e+002,6.250823e+001
2.007725e+002,6.642876e+001
2.027009e+002,6.986665e+001
2.046294e+002,7.330379e+001
2.065579e+002,7.343539e+001
2.084864e+002,6.822125e+001
2.104148e+002,5.964225e+001
2.123433e+002,5.201549e+001
2.142718e+002,4.489128e+001
2.162002e+002,3.908754e+001
2.181287e+002,3.492631e+001
2.200572e+002,3.302932e+001
2.219856e+002,3.131049e+001
2.239141e+002,2.945635e+001
2.258426e+002,2.767812e+001
2.277710e+002,2.647551e+001
2.296995e+002,2.700606e+001
2.316280e+002,2.686511e+001
2.335564e+002,2.490890e+001
2.354849e+002,1.793105e+001
2.374134e+002,1.352698e+001
2.393418e+002,1.350485e+001
2.412703e+002,1.615457e+001
2.431988e+002,1.764627e+001
2.451272e+002,1.684044e+001
2.470557e+002,1.536471e+001
2.489842e+002,1.378431e+001
2.509126e+002,1.170376e+001
2.528411e+002,1.036458e+001
2.547696e+002,1.036201e+001
2.566980e+002,1.129278e+001
2.586265e+002,1.221919e+001
2.605550e+002,1.373197e+001
2.624834e+002,1.478105e+001
2.644119e+002,1.442303e+001
2.663404e+002,1.222046e+001
2.682688e+002,1.055750e+001
2.701973e+002,1.022918e+001
2.721258e+002,1.093834e+001
2.740542e+002,1.163467e+001
2.759827e+002,1.193163e+001
2.779112e+002,1.248471e+001
2.798396e+002,1.385088e+001
2.817681e+002,1.617509e+001
2.836966e+002,1.825501e+001
2.856250e+002,2.066143e+001
2.875535e+002,2.292251e+001
2.894820e+002,2.247998e+001
2.914104e+002,1.649522e+001
2.933389e+002,1.069378e+001
2.952674e+002,8.029752e+000
2.971958e+002,9.064188e+000
2.991243e+002,1.004881e+001
3.010528e+002,1.004376e+001
3.029813e+002,9.451294e+000
3.049097e+002,9.589104e+000
3.068382e+002,1.145869e+001
3.087667e+002,1.293177e+001
3.106951e+002,1.289903e+001
3.126236e+002,1.071970e+001
3.145521e+002,9.076119e+000
3.164805e+002,7.913680e+000
3.184090e+002,7.513997e+000
3.203375e+002,8.365938e+000
3.222659e+002,1.120804e+001
3.241944e+002,1.423258e+001
3.261229e+002,1.665575e+001
3.280513e+002,1.804531e+001
3.299798e+002,1.996270e+001
3.319083e+002,2.368211e+001
3.338367e+002,2.744560e+001
3.357652e+002,2.894605e+001
3.376937e+002,2.698622e+001
3.396221e+002,2.464345e+001
3.415506e+002,2.313770e+001
3.434791e+002,2.282249e+001
3.454075e+002,2.149036e+001
3.473360e+002,1.740997e+001
3.492645e+002,1.334786e+001
3.511929e+002,1.172268e+001
3.531214e+002,1.409613e+001
3.550499e+002,1.601500e+001
3.569783e+002,1.608643e+001
3.589068e+002,1.434097e+001
3.608353e+002,1.330626e+001
3.627637e+002,1.341718e+001
3.646922e+002,1.391537e+001
3.666207e+002,1.438708e+001
3.685491e+002,1.498108e+001
3.704776e+002,1.519420e+001
3.724061e+002,1.477421e+001
3.743345e+002,1.388994e+001
3.762630e+002,1.319686e+001
3.781915e+002,1.283115e+001
3.801199e+002,1.249757e+001
3.820484e+002,1.186202e+001
3.839769e+002,1.030059e+001
3.859053e+002,1.012454e+001
3.878338e+002,1.267457e+001
3.897623e+002,1.631274e+001
3.916907e+002,1.830805e+001
3.936192e+002,1.757663e+001
3.955477e+002,1.706229e+001
3.974761e+002,1.788413e+001
3.994046e+002,2.037590e+001
4.013331e+002,2.236058e+001
4.032615e+002,2.427428e+001
4.051900e+002,2.545339e+001
4.071185e+002,2.489901e+001
4.090469e+002,2.135947e+001
4.109754e+002,1.985178e+001
4.129039e+002,2.214180e+001
4.148323e+002,2.766250e+001
4.167608e+002,3.274044e+001
4.186893e+002,3.864153e+001
4.206177e+002,4.308004e+001
4.225462e+002,4.477778e+001
4.244747e+002,4.351490e+001
4.264032e+002,4.150933e+001
4.283316e+002,3.775089e+001
4.302601e+002,3.380479e+001
4.321886e+002,3.252956e+001
4.341170e+002,3.469564e+001
4.360455e+002,3.778533e+001
4.379740e+002,4.142696e+001
4.399024e+002,4.555767e+001
4.418309e+002,4.917442e+001
4.437594e+002,5.316847e+001
4.456878e+002,5.604795e+001
4.476163e+002,5.654701e+001
4.495448e+002,5.469223e+001
4.514732e+002,5.106288e+001
4.534017e+002,4.342984e+001
4.553302e+002,3.402848e+001
4.572586e+002,2.800731e+001
4.591871e+002,2.656576e+001
4.611156e+002,2.744388e+001
4.630440e+002,3.047426e+001
4.649725e+002,3.565941e+001
4.669010e+002,4.238614e+001
4.688294e+002,5.535934e+001
4.707579e+002,6.693511e+001
4.726864e+002,7.103496e+001
4.746148e+002,6.048887e+001
4.765433e+002,5.026646e+001
4.784718e+002,3.961266e+001
4.804002e+002,3.003152e+001
4.823287e+002,2.495041e+001
4.842572e+002,2.826595e+001
4.861856e+002,3.149701e+001
4.881141e+002,3.065601e+001
4.900426e+002,2.380732e+001
4.919710e+002,1.969121e+001
4.938995e+002,2.008932e+001
4.958280e+002,2.210189e+001
4.977564e+002,2.321702e+001
4.996849e+002,2.337546e+001
5.016134e+002,2.285524e+001
5.035418e+002,2.099911e+001
5.054703e+002,1.836206e+001
5.073988e+002,1.737750e+001
5.093272e+002,1.930178e+001
5.112557e+002,2.140733e+001
5.131842e+002,2.255555e+001
5.151127e+002,2.282121e+001
5.170411e+002,2.336110e+001
5.189696e+002,2.452393e+001
5.208981e+002,2.592762e+001
5.228265e+002,2.714998e+001
5.247550e+002,2.746114e+001
5.266835e+002,2.905641e+001
5.286119e+002,3.424303e+001
5.305404e+002,4.068306e+001
5.324689e+002,4.417648e+001
5.343973e+002,4.153603e+001
5.363258e+002,3.923857e+001
5.382543e+002,3.980141e+001
5.401827e+002,4.353027e+001
5.421112e+002,4.517748e+001
5.440397e+002,4.375858e+001
5.459681e+002,4.086022e+001
5.478966e+002,3.711596e+001
5.498251e+002,3.172199e+001
5.517535e+002,2.833659e+001
5.536820e+002,2.930028e+001
5.556105e+002,3.178972e+001
5.575389e+002,3.082380e+001
5.594674e+002,2.430990e+001
5.613959e+002,1.914243e+001
5.633243e+002,1.866640e+001
5.652528e+002,2.163759e+001
5.671813e+002,2.291524e+001
5.691097e+002,2.065465e+001
5.710382e+002,1.808538e+001
5.729667e+002,1.583872e+001
5.748951e+002,1.382561e+001
5.768236e+002,1.413302e+001
5.787521e+002,1.920243e+001
5.806805e+002,2.531630e+001
5.826090e+002,2.970233e+001
5.845375e+002,3.206972e+001
5.864659e+002,3.291643e+001
5.883944e+002,3.131052e+001
5.903229e+002,2.846791e+001
5.922513e+002,2.673915e+001
5.941798e+002,2.639689e+001
5.961083e+002,2.654281e+001
5.980367e+002,2.638150e+001
5.999652e+002,2.603862e+001
6.018937e+002,2.783909e+001
6.038221e+002,3.381488e+001
6.057506e+002,4.000979e+001
6.076791e+002,4.465939e+001
6.096075e+002,4.772702e+001
6.115360e+002,5.090374e+001
6.134645e+002,5.620818e+001
6.153929e+002,6.022501e+001
6.173214e+002,6.036438e+001
6.192499e+002,5.436573e+001
6.211783e+002,4.854445e+001
6.231068e+002,4.294699e+001
6.250353e+002,3.791798e+001
6.269637e+002,3.391825e+001
6.288922e+002,3.088817e+001
6.308207e+002,2.884351e+001
6.327491e+002,2.809133e+001
6.346776e+002,2.835434e+001
6.366061e+002,2.864127e+001
6.385345e+002,2.831376e+001
6.404630e+002,2.860661e+001
6.423915e+002,3.084339e+001
6.443199e+002,3.460229e+001
6.462484e+002,3.623996e+001
6.481769e+002,3.454650e+001
6.501053e+002,3.142144e+001
6.520338e+002,2.753925e+001
6.539623e+002,2.185791e+001
6.558907e+002,1.860251e+001
6.578192e+002,1.982858e+001
6.597477e+002,2.212907e+001
6.616761e+002,2.179034e+001
6.636046e+002,1.807024e+001
6.655331e+002,1.588343e+001
6.674615e+002,1.839427e+001
6.693900e+002,2.255463e+001
6.713185e+002,2.444290e+001
6.732469e+002,2.132862e+001
6.751754e+002,1.898705e+001
6.771039e+002,1.859500e+001
6.790323e+002,1.942776e+001
6.809608e+002,1.937153e+001
6.828893e+002,1.773775e+001
6.848177e+002,1.636992e+001
6.867462e+002,1.624862e+001
6.886747e+002,1.728432e+001
6.906031e+002,1.747048e+001
6.925316e+002,1.566785e+001
6.944601e+002,1.412070e+001
6.963885e+002,1.387337e+001
6.983170e+002,1.487297e+001
7.002455e+002,1.604458e+001
7.021740e+002,1.790260e+001
7.041024e+002,1.928385e+001
7.060309e+002,1.947486e+001
7.079594e+002,1.809955e+001
7.098878e+002,1.664628e+001
7.118163e+002,1.465221e+001
7.137448e+002,1.292076e+001
7.156732e+002,1.233474e+001
7.176017e+002,1.297288e+001
7.195302e+002,1.372558e+001
7.214586e+002,1.453883e+001
7.233871e+002,1.527654e+001
7.253156e+002,1.582496e+001
7.272440e+002,1.636417e+001
7.291725e+002,1.637427e+001
7.311010e+002,1.514322e+001
7.330294e+002,1.352702e+001
7.349579e+002,1.318377e+001
7.368864e+002,1.470008e+001
7.388149e+002,1.590341e+001
7.407433e+002,1.543745e+001
7.426718e+002,1.418858e+001
7.446003e+002,1.422373e+001
7.465287e+002,1.713382e+001
7.484572e+002,1.951358e+001
7.503857e+002,2.052896e+001
7.523141e+002,2.043197e+001
7.542426e+002,2.029258e+001
7.561711e+002,1.925997e+001
7.580995e+002,1.948443e+001
7.600280e+002,2.209539e+001
7.619565e+002,2.674757e+001
7.638849e+002,3.200934e+001
7.658134e+002,4.127695e+001
7.677419e+002,4.768867e+001
7.696703e+002,4.761287e+001
7.715988e+002,4.096988e+001
7.735273e+002,3.643913e+001
7.754557e+002,3.602089e+001
7.773842e+002,3.553565e+001
7.793127e+002,3.241355e+001
7.812411e+002,2.690790e+001
7.831696e+002,2.282729e+001
7.850981e+002,2.143734e+001
7.870266e+002,2.083144e+001
7.889550e+002,2.002156e+001
7.908835e+002,1.881005e+001
7.928120e+002,1.915992e+001
7.947404e+002,2.312305e+001
7.966689e+002,2.696449e+001
7.985974e+002,2.866365e+001
8.005258e+002,2.827045e+001
8.024543e+002,2.682312e+001
8.043828e+002,2.206515e+001
8.063112e+002,1.815173e+001
8.082397e+002,1.792795e+001
8.101682e+002,2.311231e+001
8.120966e+002,2.640440e+001
8.140251e+002,2.578508e+001
8.159536e+002,2.480816e+001
8.178820e+002,2.585068e+001
8.198105e+002,2.886826e+001
8.217390e+002,3.260519e+001
8.236674e+002,3.541623e+001
8.255959e+002,4.004439e+001
8.275244e+002,4.829846e+001
8.294528e+002,6.108452e+001
8.313813e+002,7.574221e+001
8.333098e+002,9.436084e+001
8.352382e+002,1.133965e+002
8.371667e+002,1.318338e+002
8.390952e+002,1.502135e+002
8.410236e+002,1.613777e+002
8.429521e+002,1.642439e+002
8.448806e+002,1.583869e+002
8.468090e+002,1.414411e+002
8.487375e+002,1.059441e+002
8.506660e+002,7.900620e+001
8.525944e+002,6.424152e+001
8.545229e+002,5.504897e+001
8.564514e+002,4.729780e+001
8.583798e+002,4.096439e+001
8.603083e+002,3.548912e+001
8.622368e+002,2.995388e+001
8.641652e+002,2.615632e+001
8.660937e+002,2.532535e+001
8.680222e+002,2.793789e+001
8.699506e+002,3.141519e+001
8.718791e+002,3.661853e+001
8.738076e+002,4.172731e+001
8.757360e+002,4.465639e+001
8.776645e+002,4.480896e+001
8.795930e+002,4.868749e+001
8.815214e+002,6.045835e+001
8.834499e+002,7.266019e+001
8.853784e+002,8.204376e+001
8.873068e+002,8.875572e+001
8.892353e+002,9.038507e+001
8.911638e+002,8.356226e+001
8.930922e+002,7.407912e+001
8.950207e+002,6.348503e+001
8.969492e+002,5.145182e+001
8.988776e+002,4.172200e+001
9.008061e+002,3.456380e+001
9.027346e+002,2.931965e+001
9.046630e+002,2.577650e+001
9.065915e+002,2.383502e+001
9.085200e+002,2.404230e+001
9.104484e+002,2.847040e+001
9.123769e+002,3.249001e+001
9.143054e+002,3.450003e+001
9.162338e+002,3.456515e+001
9.181623e+002,3.336640e+001
9.200908e+002,2.977262e+001
9.220192e+002,2.625695e+001
9.239477e+002,2.329883e+001
9.258762e+002,2.101019e+001
9.278046e+002,1.976286e+001
9.297331e+002,2.031085e+001
9.316616e+002,2.052022e+001
9.335900e+002,1.914913e+001
9.355185e+002,1.681572e+001
9.374470e+002,1.527080e+001
9.393754e+002,1.471643e+001
9.413039e+002,1.479340e+001
9.432324e+002,1.608271e+001
9.451608e+002,1.784913e+001
9.470893e+002,1.850392e+001
9.490178e+002,1.764885e+001
9.509462e+002,1.699537e+001
9.528747e+002,1.713102e+001
9.548032e+002,1.760144e+001
9.567316e+002,1.801888e+001
9.586601e+002,1.856653e+001
9.605886e+002,1.839852e+001
9.625170e+002,1.655913e+001
9.644455e+002,1.451155e+001
9.663740e+002,1.353757e+001
9.683024e+002,1.402566e+001
9.702309e+002,1.475572e+001
9.721594e+002,1.584590e+001
9.740878e+002,1.708720e+001
9.760163e+002,1.835488e+001
9.779448e+002,1.964862e+001
9.798733e+002,2.093180e+001
9.818018e+002,2.162125e+001
9.837302e+002,2.301352e+001
9.856587e+002,2.613772e+001
9.875872e+002,3.103188e+001
9.895156e+002,3.473903e+001
9.914441e+002,3.852805e+001
9.933726e+002,3.981108e+001
9.953010e+002,3.636625e+001
9.972295e+002,2.951603e+001
9.991580e+002,2.430575e+001
1.001086e+003,2.094948e+001
1.003015e+003,1.868550e+001
1.004943e+003,1.737584e+001
1.006872e+003,1.698210e+001
1.008800e+003,1.779531e+001
1.010729e+003,2.084314e+001
1.012657e+003,2.262053e+001
1.014586e+003,2.192833e+001
1.016514e+003,2.014225e+001
1.018443e+003,1.856934e+001
1.020371e+003,1.684771e+001
1.022300e+003,1.636348e+001
1.024228e+003,1.777777e+001
1.026156e+003,1.996366e+001
1.028085e+003,2.249364e+001
1.030013e+003,2.530433e+001
1.031942e+003,2.739061e+001
1.033870e+003,2.805866e+001
1.035799e+003,2.867793e+001
1.037727e+003,3.014060e+001
1.039656e+003,3.230989e+001
1.041584e+003,3.348272e+001
1.043513e+003,3.301255e+001
1.045441e+003,3.226703e+001
1.047370e+003,3.093502e+001
1.049298e+003,2.959719e+001
1.051227e+003,2.999936e+001
1.053155e+003,3.336546e+001
1.055083e+003,3.491558e+001
1.057012e+003,3.085293e+001
1.058940e+003,2.600249e+001
1.060869e+003,2.543153e+001
1.062797e+003,2.996798e+001
1.064726e+003,3.357769e+001
1.066654e+003,3.372045e+001
1.068583e+003,3.393839e+001
1.070511e+003,3.599006e+001
1.072440e+003,3.993218e+001
1.074368e+003,4.520856e+001
1.076297e+003,5.197044e+001
1.078225e+003,5.968534e+001
1.080154e+003,6.905678e+001
1.082082e+003,7.928625e+001
1.084010e+003,8.821673e+001
1.085939e+003,9.613962e+001
1.087867e+003,1.022744e+002
1.089796e+003,1.070329e+002
1.091724e+003,1.094461e+002
1.093653e+003,1.079966e+002
1.095581e+003,1.020771e+002
1.097510e+003,9.383421e+001
1.099438e+003,8.105087e+001
1.101367e+003,6.829942e+001
1.103295e+003,5.838316e+001
1.105224e+003,5.156029e+001
1.107152e+003,4.604655e+001
1.109081e+003,4.110246e+001
1.111009e+003,3.819873e+001
1.112938e+003,3.925494e+001
1.114866e+003,4.261727e+001
1.116794e+003,4.375245e+001
1.118723e+003,4.032857e+001
1.120651e+003,4.089240e+001
1.122580e+003,5.356137e+001
1.124508e+003,6.840491e+001
1.126437e+003,7.524199e+001
1.128365e+003,7.219955e+001
1.130294e+003,6.669279e+001
1.132222e+003,5.555748e+001
1.134151e+003,4.568237e+001
1.136079e+003,4.190031e+001
1.138008e+003,4.381168e+001
1.139936e+003,4.330574e+001
1.141865e+003,3.677205e+001
1.143793e+003,3.324169e+001
1.145721e+003,3.857588e+001
1.147650e+003,4.770448e+001
1.149578e+003,5.223566e+001
1.151507e+003,5.057859e+001
1.153435e+003,5.111692e+001
1.155364e+003,5.911983e+001
1.157292e+003,6.733028e+001
1.159221e+003,7.156070e+001
1.161149e+003,7.178143e+001
1.163078e+003,6.855035e+001
1.165006e+003,5.937502e+001
1.166935e+003,4.986050e+001
1.168863e+003,4.084063e+001
1.170792e+003,3.275677e+001
1.172720e+003,2.683998e+001
1.174648e+003,2.271442e+001
1.176577e+003,2.122669e+001
1.178505e+003,2.451901e+001
1.180434e+003,2.916722e+001
1.182362e+003,3.242686e+001
1.184291e+003,3.433753e+001
1.186219e+003,3.569584e+001
1.188148e+003,3.573138e+001
1.190076e+003,3.646223e+001
1.192005e+003,3.973946e+001
1.193933e+003,4.438580e+001
1.195862e+003,4.642945e+001
1.197790e+003,4.447618e+001
1.199719e+003,4.201190e+001
1.201647e+003,3.878783e+001
1.203575e+003,3.558096e+001
1.205504e+003,3.298439e+001
1.207432e+003,3.100907e+001
1.209361e+003,2.992676e+001
1.211289e+003,3.131874e+001
1.213218e+003,3.173397e+001
1.215146e+003,2.793391e+001
1.217075e+003,2.259239e+001
1.219003e+003,2.159918e+001
1.220932e+003,2.667725e+001
1.222860e+003,3.017226e+001
1.224789e+003,2.857499e+001
1.226717e+003,2.576444e+001
1.228646e+003,2.461147e+001
1.230574e+003,2.536997e+001
1.232502e+003,2.511086e+001
1.234431e+003,2.167474e+001
1.236359e+003,1.964864e+001
1.238288e+003,2.096131e+001
1.240216e+003,2.434481e+001
1.242145e+003,2.729088e+001
1.244073e+003,2.971722e+001
1.246002e+003,3.192172e+001
1.247930e+003,3.379277e+001
1.249859e+003,3.559797e+001
1.251787e+003,3.795292e+001
1.253716e+003,4.051699e+001
1.255644e+003,4.146415e+001
1.257573e+003,3.977993e+001
1.259501e+003,3.847044e+001
1.261429e+003,3.839784e+001
1.263358e+003,3.942242e+001
1.265286e+003,4.132813e+001
1.267215e+003,4.399173e+001
1.269143e+003,4.832898e+001
1.271072e+003,5.659537e+001
1.273000e+003,6.424683e+001
1.274929e+003,7.005951e+001
1.276857e+003,7.395402e+001
1.278786e+003,7.563947e+001
1.280714e+003,7.455730e+001
1.282643e+003,7.207107e+001
1.284571e+003,6.685907e+001
1.286500e+003,6.139099e+001
1.288428e+003,5.579177e+001
1.290356e+003,5.067151e+001
1.292285e+003,5.341096e+001
1.294213e+003,6.942999e+001
1.296142e+003,8.356368e+001
1.298070e+003,8.928394e+001
1.299999e+003,9.082949e+001
1.301927e+003,9.336348e+001
1.303856e+003,9.707240e+001
1.305784e+003,9.833965e+001
1.307713e+003,9.424105e+001
1.309641e+003,9.080857e+001
1.311570e+003,8.933196e+001
1.313498e+003,9.051104e+001
1.315427e+003,9.638464e+001
1.317355e+003,1.084824e+002
1.319283e+003,1.221714e+002
1.321212e+003,1.446386e+002
1.323140e+003,1.614357e+002
1.325069e+003,1.616084e+002
1.326997e+003,1.465311e+002
1.328926e+003,1.312257e+002
1.330854e+003,1.147721e+002
1.332783e+003,9.942627e+001
1.334711e+003,8.445980e+001
1.336640e+003,7.153097e+001
1.338568e+003,6.253404e+001
1.340497e+003,5.724945e+001
1.342425e+003,5.373253e+001
1.344354e+003,5.169658e+001
1.346282e+003,5.173157e+001
1.348210e+003,5.684155e+001
1.350139e+003,6.262688e+001
1.352068e+003,6.384826e+001
1.353996e+003,6.029656e+001
1.355924e+003,5.509251e+001
1.357853e+003,4.617091e+001
1.359781e+003,3.920877e+001
1.361710e+003,3.749183e+001
1.363638e+003,3.885142e+001
1.365567e+003,3.888597e+001
1.367495e+003,3.678533e+001
1.369424e+003,3.560846e+001
1.371352e+003,3.562588e+001
1.373281e+003,3.645627e+001
1.375209e+003,3.872984e+001
1.377138e+003,4.172325e+001
1.379066e+003,4.289134e+001
1.380995e+003,4.063176e+001
1.382923e+003,3.971679e+001
1.384851e+003,4.128854e+001
1.386780e+003,4.345532e+001
1.388708e+003,4.409241e+001
1.390637e+003,4.424820e+001
1.392565e+003,4.792256e+001
1.394494e+003,5.542249e+001
1.396422e+003,6.542985e+001
1.398351e+003,7.960698e+001
1.400279e+003,9.444081e+001
1.402208e+003,1.077871e+002
1.404136e+003,1.197437e+002
1.406065e+003,1.312199e+002
1.407993e+003,1.439319e+002
1.409922e+003,1.509472e+002
1.411850e+003,1.470151e+002
1.413778e+003,1.395411e+002
1.415707e+003,1.335877e+002
1.417635e+003,1.289352e+002
1.419564e+003,1.223847e+002
1.421492e+003,1.125347e+002
1.423421e+003,1.034010e+002
1.425349e+003,9.399956e+001
1.427278e+003,8.688553e+001
1.429206e+003,8.498986e+001
1.431135e+003,8.820673e+001
1.433063e+003,9.035489e+001
1.434992e+003,8.881284e+001
1.436920e+003,8.974709e+001
1.438849e+003,9.664621e+001
1.440777e+003,1.040293e+002
1.442705e+003,1.090440e+002
1.444634e+003,1.114080e+002
1.446562e+003,1.055895e+002
1.448491e+003,8.560567e+001
1.450419e+003,6.848060e+001
1.452348e+003,5.691230e+001
1.454276e+003,4.950174e+001
1.456205e+003,4.693914e+001
1.458133e+003,4.818749e+001
1.460062e+003,4.672091e+001
1.461990e+003,4.055400e+001
1.463919e+003,3.667175e+001
1.465847e+003,3.909381e+001
1.467776e+003,4.268422e+001
1.469704e+003,4.328934e+001
1.471632e+003,4.194710e+001
1.473561e+003,4.230794e+001
1.475489e+003,4.492707e+001
1.477418e+003,4.796201e+001
1.479346e+003,5.088000e+001
1.481275e+003,5.412701e+001
1.483203e+003,5.892249e+001
1.485132e+003,6.431614e+001
1.487060e+003,6.634157e+001
1.488989e+003,6.364060e+001
1.490917e+003,6.184393e+001
1.492846e+003,6.384474e+001
1.494774e+003,6.516288e+001
1.496703e+003,6.345216e+001
1.498631e+003,5.944410e+001
1.500559e+003,5.512040e+001
1.502488e+003,5.023031e+001
1.504416e+003,4.573380e+001
1.506345e+003,4.059738e+001
1.508273e+003,3.709328e+001
1.510202e+003,3.729873e+001
1.512130e+003,3.933955e+001
1.514059e+003,3.960052e+001
1.515987e+003,3.738271e+001
1.517916e+003,3.558976e+001
1.519844e+003,3.366516e+001
1.521773e+003,3.283863e+001
1.523701e+003,3.379866e+001
1.525630e+003,3.588766e+001
1.527558e+003,3.863424e+001
1.529486e+003,4.222986e+001
1.531415e+003,4.437755e+001
1.533343e+003,4.235619e+001
1.535272e+003,4.260093e+001
1.537200e+003,4.946221e+001
1.539129e+003,5.668365e+001
1.541057e+003,5.850584e+001
1.542986e+003,5.534598e+001
1.544914e+003,5.124515e+001
1.546843e+003,4.504554e+001
1.548771e+003,4.093957e+001
1.550700e+003,4.111945e+001
1.552628e+003,4.231584e+001
1.554557e+003,4.295275e+001
1.556485e+003,4.294628e+001
1.558413e+003,4.159148e+001
1.560342e+003,3.827986e+001
1.562270e+003,3.765668e+001
1.564199e+003,4.213047e+001
1.566127e+003,4.711866e+001
1.568056e+003,5.096299e+001
1.569984e+003,5.373372e+001
1.571913e+003,5.508335e+001
1.573841e+003,5.512315e+001
1.575770e+003,5.655894e+001
1.577698e+003,6.004216e+001
1.579627e+003,6.410316e+001
1.581555e+003,6.873605e+001
1.583484e+003,7.327664e+001
1.585412e+003,7.717852e+001
1.587340e+003,8.054777e+001
1.589269e+003,8.361375e+001
1.591197e+003,8.607226e+001
1.593126e+003,8.963287e+001
1.595054e+003,9.619598e+001
1.596983e+003,1.020030e+002
1.598911e+003,1.062095e+002
1.600840e+003,1.078971e+002
1.602768e+003,1.040052e+002
1.604697e+003,9.388437e+001
1.606625e+003,8.682818e+001
1.608554e+003,8.483963e+001
1.610482e+003,8.429617e+001
1.612411e+003,8.517434e+001
1.614339e+003,8.598212e+001
1.616267e+003,8.512782e+001
1.618196e+003,8.288780e+001
1.620124e+003,8.176258e+001
1.622053e+003,8.294328e+001
1.623981e+003,8.190698e+001
1.625910e+003,7.501202e+001
1.627838e+003,6.870251e+001
1.629767e+003,6.598945e+001
1.631695e+003,6.587029e+001
1.633624e+003,6.699689e+001
1.635552e+003,6.974331e+001
1.637481e+003,7.074614e+001
1.639409e+003,6.944627e+001
1.641338e+003,6.695946e+001
1.643266e+003,6.312736e+001
1.645194e+003,5.873048e+001
1.647123e+003,5.421885e+001
1.649051e+003,4.962625e+001
1.650980e+003,4.508226e+001
1.652908e+003,4.017531e+001
1.654837e+003,3.647395e+001
1.656765e+003,3.470311e+001
1.658694e+003,3.350783e+001
1.660622e+003,3.175224e+001
1.662551e+003,3.076786e+001
1.664479e+003,3.270789e+001
1.666408e+003,3.776151e+001
1.668336e+003,4.167617e+001
1.670265e+003,4.374845e+001
1.672193e+003,4.615316e+001
1.674121e+003,4.969776e+001
1.676050e+003,5.313404e+001
1.677978e+003,5.561963e+001
1.679907e+003,5.755822e+001
1.681835e+003,6.057976e+001
1.683764e+003,6.603175e+001
1.685692e+003,6.534837e+001
1.687621e+003,5.304610e+001
1.689549e+003,4.284975e+001
1.691478e+003,3.759920e+001
1.693406e+003,3.529520e+001
1.695335e+003,3.596744e+001
1.697263e+003,3.842842e+001
1.699192e+003,3.842578e+001
1.701120e+003,3.487810e+001
1.703048e+003,3.285121e+001
1.704977e+003,3.419143e+001
1.706905e+003,3.485281e+001
1.708834e+003,3.299995e+001
1.710762e+003,3.075061e+001
1.712691e+003,3.000809e+001
1.714619e+003,3.050429e+001
1.716548e+003,3.078378e+001
1.718476e+003,3.075864e+001
1.720405e+003,3.087530e+001
1.722333e+003,3.128535e+001
1.724262e+003,3.171590e+001
1.726190e+003,3.277211e+001
1.728119e+003,3.324637e+001
1.730047e+003,3.137370e+001
1.731975e+003,2.759856e+001
1.733904e+003,2.537162e+001
1.735832e+003,2.484967e+001
1.737761e+003,2.536847e+001
1.739689e+003,2.775319e+001
1.741618e+003,2.992826e+001
1.743546e+003,3.089346e+001
1.745475e+003,3.158622e+001
1.747403e+003,3.328498e+001
1.749332e+003,3.568422e+001
1.751260e+003,3.644851e+001
1.753189e+003,3.532617e+001
1.755117e+003,3.348113e+001
1.757046e+003,2.924373e+001
1.758974e+003,2.724883e+001
1.760902e+003,3.183237e+001
1.762831e+003,3.710195e+001
1.764759e+003,3.699737e+001
1.766688e+003,3.287310e+001
1.768616e+003,3.082307e+001
1.770545e+003,3.114426e+001
1.772473e+003,3.250795e+001
1.774402e+003,3.605485e+001
1.776330e+003,3.812991e+001
1.778259e+003,3.660954e+001
1.780187e+003,3.363646e+001
1.782116e+003,2.950341e+001
1.784044e+003,2.550284e+001
1.785973e+003,2.614472e+001
1.787901e+003,3.191590e+001
1.789829e+003,3.529094e+001
1.791758e+003,3.447388e+001
1.793686e+003,3.314953e+001
1.795615e+003,3.234775e+001
1.797543e+003,3.174047e+001
1.799472e+003,3.141126e+001
1.801400e+003,3.098130e+001
1.803329e+003,2.925805e+001
1.805257e+003,2.631722e+001
1.807186e+003,2.534107e+001
1.809114e+003,2.744566e+001
1.811043e+003,2.906811e+001
1.812971e+003,2.881964e+001
1.814900e+003,2.830670e+001
1.816828e+003,2.879379e+001
1.818756e+003,2.933415e+001
1.820685e+003,2.827730e+001
1.822613e+003,2.589434e+001
1.824542e+003,2.425513e+001
1.826470e+003,2.343459e+001
1.828399e+003,2.327529e+001
1.830327e+003,2.423640e+001
1.832256e+003,2.521020e+001
1.834184e+003,2.555409e+001
1.836113e+003,2.594791e+001
1.838041e+003,2.712393e+001
1.839970e+003,2.890928e+001
1.841898e+003,3.071976e+001
1.843827e+003,3.272611e+001
1.845755e+003,3.418539e+001
1.847684e+003,3.447063e+001
1.849612e+003,3.513178e+001
1.851541e+003,3.831241e+001
1.853469e+003,3.986557e+001
1.855397e+003,3.514730e+001
1.857326e+003,2.815702e+001
1.859254e+003,2.599715e+001
1.861183e+003,2.875206e+001
1.863111e+003,3.020861e+001
1.865040e+003,2.959153e+001
1.866968e+003,2.940523e+001
1.868897e+003,2.978139e+001
1.870825e+003,3.068528e+001
1.872754e+003,3.325125e+001
1.874682e+003,3.528981e+001
1.876611e+003,3.476321e+001
1.878539e+003,3.228903e+001
1.880468e+003,2.912442e+001
1.882396e+003,2.510164e+001
1.884324e+003,2.346716e+001
1.886253e+003,2.546845e+001
1.888181e+003,2.682026e+001
1.890110e+003,2.530954e+001
1.892038e+003,2.464268e+001
1.893967e+003,2.760721e+001
1.895895e+003,3.163645e+001
1.897824e+003,3.487707e+001
1.899752e+003,3.695216e+001
1.901681e+003,3.607275e+001
1.903609e+003,3.201403e+001
1.905538e+003,2.876728e+001
1.907466e+003,2.641957e+001
1.909395e+003,2.592564e+001
1.911323e+003,2.916048e+001
1.913251e+003,3.248249e+001
1.915180e+003,3.456834e+001
1.917108e+003,3.517035e+001
1.919037e+003,3.331707e+001
1.920965e+003,2.949651e+001
1.922894e+003,2.631593e+001
1.924822e+003,2.296837e+001
1.926751e+003,2.330739e+001
1.928679e+003,3.225885e+001
1.930608e+003,3.774104e+001
1.932536e+003,3.528635e+001
1.934465e+003,3.141015e+001
1.936393e+003,2.863832e+001
1.938322e+003,2.733941e+001
1.940250e+003,2.894198e+001
1.942178e+003,3.281276e+001
1.944107e+003,3.415152e+001
1.946035e+003,3.207851e+001
1.947964e+003,3.119179e+001
1.949892e+003,3.274308e+001
1.951821e+003,3.347094e+001
1.953749e+003,3.222959e+001
1.955678e+003,3.051660e+001
1.957606e+003,2.830437e+001
1.959535e+003,2.656802e+001
1.961463e+003,2.635553e+001
1.963392e+003,2.750568e+001
1.965320e+003,3.037643e+001
1.967249e+003,3.502525e+001
1.969177e+003,3.571474e+001
1.971105e+003,2.976904e+001
1.973034e+003,2.682700e+001
1.974962e+003,3.192340e+001
1.976891e+003,3.687059e+001
1.978819e+003,3.836410e+001
1.980748e+003,3.769994e+001
1.982676e+003,3.473387e+001
1.984605e+003,3.087695e+001
1.986533e+003,2.985032e+001
1.988462e+003,3.184284e+001
1.990390e+003,3.324171e+001
1.992319e+003,3.457236e+001
1.994247e+003,3.437261e+001
1.996176e+003,3.081180e+001
1.998104e+003,2.833562e+001
2.000032e+003,2.823197e+001
2.001961e+003,2.942373e+001
2.003889e+003,3.216516e+001
2.005818e+003,3.517544e+001
2.007746e+003,3.647483e+001
2.009675e+003,3.627630e+001
2.011603e+003,3.598822e+001
2.013532e+003,3.563361e+001
2.015460e+003,3.493161e+001
2.017389e+003,3.354208e+001
2.019317e+003,3.291388e+001
2.021246e+003,3.396560e+001
2.023174e+003,3.496474e+001
2.025103e+003,3.412156e+001
2.027031e+003,3.378379e+001
2.028959e+003,3.791536e+001
2.030888e+003,4.309827e+001
2.032816e+003,4.141676e+001
2.034745e+003,3.347218e+001
2.036673e+003,3.007527e+001
2.038602e+003,3.349217e+001
2.040530e+003,3.477723e+001
2.042459e+003,3.087211e+001
2.044387e+003,2.928970e+001
2.046316e+003,3.410820e+001
2.048244e+003,3.780800e+001
2.050173e+003,3.497855e+001
2.052101e+003,3.129668e+001
2.054030e+003,3.291219e+001
2.055958e+003,3.745156e+001
2.057886e+003,3.943237e+001
2.059815e+003,3.906047e+001
2.061743e+003,3.845986e+001
2.063672e+003,3.770301e+001
2.065600e+003,3.673713e+001
2.067529e+003,3.521795e+001
2.069457e+003,3.443939e+001
2.071386e+003,3.558842e+001
2.073314e+003,3.644093e+001
2.075243e+003,3.549665e+001
2.077171e+003,3.419775e+001
2.079100e+003,3.422940e+001
2.081028e+003,3.466017e+001
2.082957e+003,3.317188e+001
2.084885e+003,3.002411e+001
2.086813e+003,2.877162e+001
2.088742e+003,2.969164e+001
2.090670e+003,3.183296e+001
2.092599e+003,3.734323e+001
2.094527e+003,3.965389e+001
2.096456e+003,3.495753e+001
2.098384e+003,3.117545e+001
2.100313e+003,3.150928e+001
2.102241e+003,3.326935e+001
2.104170e+003,3.596098e+001
2.106098e+003,3.815924e+001
2.108027e+003,3.751869e+001
2.109955e+003,3.494872e+001
2.111884e+003,3.308893e+001
2.113812e+003,3.197026e+001
2.115740e+003,3.129027e+001
2.117669e+003,3.130029e+001
2.119597e+003,3.088663e+001
2.121526e+003,2.866596e+001
2.123454e+003,2.794796e+001
2.125383e+003,3.157050e+001
2.127311e+003,3.411198e+001
2.129240e+003,3.191315e+001
2.131168e+003,2.847603e+001
2.133097e+003,2.597084e+001
2.135025e+003,2.490833e+001
2.136954e+003,2.729993e+001
2.138882e+003,3.209683e+001
2.140811e+003,3.376603e+001
2.142739e+003,3.223002e+001
2.144667e+003,3.124917e+001
2.146596e+003,3.132887e+001
2.148524e+003,3.112534e+001
2.150453e+003,3.027031e+001
2.152381e+003,2.930322e+001
2.154310e+003,2.804535e+001
2.156238e+003,2.714914e+001
2.158167e+003,2.624452e+001
2.160095e+003,2.654500e+001
2.162024e+003,3.044962e+001
2.163952e+003,3.557099e+001
2.165881e+003,3.726564e+001
2.167809e+003,3.629823e+001
2.169738e+003,3.776195e+001
2.171666e+003,4.174759e+001
2.173594e+003,4.139265e+001
2.175523e+003,3.522741e+001
2.177451e+003,3.183860e+001
2.179380e+003,3.421111e+001
2.181308e+003,3.484553e+001
2.183237e+003,2.966866e+001
2.185165e+003,2.511592e+001
2.187094e+003,2.359486e+001
2.189022e+003,2.406854e+001
2.190951e+003,2.749283e+001
2.192879e+003,3.115368e+001
2.194808e+003,3.078366e+001
2.196736e+003,2.804042e+001
2.198665e+003,2.761529e+001
2.200593e+003,2.943628e+001
2.202521e+003,3.099305e+001
2.204450e+003,3.221716e+001
2.206378e+003,3.418698e+001
2.208307e+003,3.740823e+001
2.210235e+003,3.935514e+001
2.212164e+003,3.901674e+001
2.214092e+003,3.860192e+001
2.216021e+003,3.944439e+001
2.217949e+003,3.958570e+001
2.219878e+003,3.778834e+001
2.221806e+003,3.529153e+001
2.223735e+003,3.206764e+001
2.225663e+003,2.946741e+001
2.227592e+003,2.944454e+001
2.229520e+003,3.144382e+001
2.231448e+003,3.484440e+001
2.233377e+003,3.922764e+001
2.235305e+003,3.983889e+001
2.237234e+003,3.655981e+001
2.239162e+003,3.343849e+001
2.241091e+003,3.066399e+001
2.243019e+003,2.897335e+001
2.244948e+003,2.849399e+001
2.246876e+003,2.910323e+001
2.248805e+003,3.171649e+001
2.250733e+003,3.404462e+001
2.252662e+003,3.608917e+001
2.254590e+003,3.649213e+001
2.256519e+003,3.223563e+001
2.258447e+003,2.801886e+001
2.260375e+003,2.976334e+001
2.262304e+003,3.392701e+001
2.264232e+003,3.402345e+001
2.266161e+003,3.155778e+001
2.268089e+003,3.121847e+001
2.270018e+003,3.280116e+001
2.271946e+003,3.398501e+001
2.273875e+003,3.461248e+001
2.275803e+003,3.527842e+001
2.277732e+003,3.655691e+001
2.279660e+003,3.666470e+001
2.281589e+003,3.360917e+001
2.283517e+003,3.239363e+001
2.285446e+003,3.542765e+001
2.287374e+003,3.812117e+001
2.289302e+003,3.915293e+001
2.291231e+003,3.923609e+001
2.293159e+003,3.847347e+001
2.295088e+003,3.718175e+001
2.297016e+003,3.495325e+001
2.298945e+003,3.287347e+001
2.300873e+003,3.277117e+001
2.302802e+003,3.386502e+001
2.304730e+003,3.467085e+001
2.306659e+003,3.499614e+001
2.308587e+003,3.265647e+001
2.310516e+003,2.688825e+001
2.312444e+003,2.492849e+001
2.314373e+003,2.705217e+001
2.316301e+003,3.202528e+001
2.318229e+003,4.137703e+001
2.320158e+003,4.654658e+001
2.322086e+003,4.479158e+001
2.324015e+003,4.163729e+001
2.325943e+003,3.767339e+001
2.327872e+003,3.427401e+001
2.329800e+003,3.021360e+001
2.331729e+003,2.905111e+001
2.333657e+003,3.621953e+001
2.335586e+003,4.361637e+001
2.337514e+003,4.317990e+001
2.339443e+003,3.984455e+001
2.341371e+003,4.027386e+001
2.343300e+003,4.210522e+001
2.345228e+003,4.032418e+001
2.347156e+003,3.613305e+001
2.349085e+003,3.302035e+001
2.351013e+003,3.106825e+001
2.352942e+003,3.057113e+001
2.354870e+003,3.164604e+001
2.356799e+003,3.353503e+001
2.358727e+003,3.701101e+001
2.360656e+003,3.917306e+001
2.362584e+003,4.004053e+001
2.364513e+003,3.893319e+001
2.366441e+003,3.405400e+001
2.368370e+003,3.181416e+001
2.370298e+003,3.581834e+001
2.372227e+003,3.932135e+001
2.374155e+003,3.916947e+001
2.376083e+003,3.834803e+001
2.378012e+003,3.950423e+001
2.379940e+003,3.922966e+001
2.381869e+003,3.154505e+001
2.383797e+003,2.471296e+001
2.385726e+003,2.930415e+001
2.387654e+003,3.822244e+001
2.389583e+003,4.167079e+001
2.391511e+003,4.179516e+001
2.393440e+003,4.285536e+001
2.395368e+003,4.430172e+001
2.397297e+003,4.352959e+001
2.399225e+003,4.084266e+001
2.401154e+003,4.040707e+001
2.403082e+003,4.229728e+001
2.405010e+003,4.636817e+001
2.406939e+003,5.358112e+001
2.408867e+003,5.757518e+001
2.410796e+003,5.691586e+001
2.412724e+003,5.912715e+001
2.414653e+003,6.666776e+001
2.416581e+003,7.225574e+001
2.418510e+003,7.233575e+001
2.420438e+003,7.380409e+001
2.422367e+003,8.003050e+001
2.424295e+003,8.558649e+001
2.426224e+003,8.711552e+001
2.428152e+003,8.958082e+001
2.430081e+003,9.972897e+001
2.432009e+003,1.059285e+002
2.433938e+003,9.926617e+001
2.435866e+003,8.883942e+001
2.437794e+003,7.905209e+001
2.439723e+003,7.201854e+001
2.441651e+003,7.258348e+001
2.443580e+003,7.553073e+001
2.445508e+003,7.272265e+001
2.447437e+003,6.617792e+001
2.449365e+003,5.938613e+001
2.451294e+003,5.303257e+001
2.453222e+003,4.986112e+001
2.455151e+003,4.941024e+001
2.457079e+003,4.985802e+001
2.459008e+003,5.102857e+001
2.460936e+003,5.136831e+001
2.462865e+003,5.077067e+001
2.464793e+003,4.989114e+001
2.466721e+003,4.877623e+001
2.468650e+003,4.694262e+001
2.470578e+003,4.369053e+001
2.472507e+003,4.247601e+001
2.474435e+003,4.370809e+001
2.476364e+003,4.694720e+001
2.478292e+003,5.368770e+001
2.480221e+003,5.772712e+001
2.482149e+003,5.635769e+001
2.484078e+003,5.399002e+001
2.486006e+003,4.963072e+001
2.487935e+003,4.749625e+001
2.489863e+003,5.173474e+001
2.491792e+003,5.420913e+001
2.493720e+003,4.994680e+001
2.495648e+003,4.623478e+001
2.497577e+003,4.846764e+001
2.499505e+003,5.077545e+001
2.501434e+003,4.720244e+001
2.503362e+003,4.450562e+001
2.505291e+003,5.143048e+001
2.507219e+003,5.885802e+001
2.509148e+003,5.563615e+001
2.511076e+003,4.912431e+001
2.513005e+003,4.865648e+001
2.514933e+003,5.054628e+001
2.516862e+003,4.932681e+001
2.518790e+003,4.667481e+001
2.520719e+003,4.527110e+001
2.522647e+003,4.513540e+001
2.524575e+003,4.661355e+001
2.526504e+003,4.938817e+001
2.528432e+003,5.292222e+001
2.530361e+003,5.662003e+001
2.532289e+003,5.635032e+001
2.534218e+003,5.285349e+001
2.536146e+003,5.136588e+001
2.538075e+003,5.201607e+001
2.540003e+003,5.211034e+001
2.541932e+003,5.178965e+001
2.543860e+003,4.936856e+001
2.545789e+003,4.460085e+001
2.547717e+003,3.873169e+001
2.549646e+003,3.125030e+001
2.551574e+003,2.891501e+001
2.553502e+003,3.305803e+001
2.555431e+003,3.757783e+001
2.557359e+003,4.286581e+001
2.559288e+003,4.492489e+001
2.561216e+003,4.021590e+001
2.563145e+003,3.860326e+001
2.565073e+003,4.214012e+001
2.567002e+003,4.446304e+001
2.568930e+003,4.413185e+001
2.570859e+003,4.379451e+001
2.572787e+003,4.448512e+001
2.574716e+003,4.448679e+001
2.576644e+003,4.098220e+001
2.578573e+003,4.051189e+001
2.580501e+003,4.837235e+001
2.582429e+003,5.368804e+001
2.584358e+003,5.280832e+001
2.586287e+003,5.050228e+001
2.588215e+003,4.709548e+001
2.590144e+003,4.530139e+001
2.592072e+003,4.796450e+001
2.594000e+003,5.028867e+001
2.595929e+003,4.942061e+001
2.597857e+003,4.830283e+001
2.599786e+003,4.865685e+001
2.601714e+003,4.898296e+001
2.603643e+003,4.820052e+001
2.605571e+003,4.746815e+001
2.607500e+003,4.833060e+001
2.609428e+003,4.856702e+001
2.611357e+003,4.446096e+001
2.613285e+003,4.152599e+001
2.615214e+003,4.642525e+001
2.617142e+003,5.212095e+001
2.619071e+003,5.200591e+001
2.620999e+003,5.039981e+001
2.622927e+003,5.025433e+001
2.624856e+003,5.130836e+001
2.626784e+003,5.455042e+001
2.628713e+003,5.759087e+001
2.630641e+003,5.707833e+001
2.632570e+003,5.543767e+001
2.634498e+003,5.675481e+001
2.636427e+003,5.764484e+001
2.638355e+003,5.210139e+001
2.640284e+003,4.534105e+001
2.642212e+003,4.358308e+001
2.644141e+003,4.550964e+001
2.646069e+003,5.174326e+001
2.647998e+003,5.833567e+001
2.649926e+003,5.747996e+001
2.651854e+003,5.348609e+001
2.653783e+003,5.345707e+001
2.655711e+003,5.532196e+001
2.657640e+003,5.586797e+001
2.659568e+003,5.590548e+001
2.661497e+003,5.732684e+001
2.663425e+003,5.912201e+001
2.665354e+003,5.937448e+001
2.667282e+003,5.833725e+001
2.669211e+003,5.457816e+001
2.671139e+003,5.113064e+001
2.673068e+003,5.628990e+001
2.674996e+003,6.480539e+001
2.676925e+003,6.401981e+001
2.678853e+003,5.817739e+001
2.680781e+003,5.741108e+001
2.682710e+003,5.972217e+001
2.684638e+003,6.087946e+001
2.686567e+003,6.097936e+001
2.688495e+003,5.919480e+001
2.690424e+003,5.715324e+001
2.692352e+003,5.949031e+001
2.694281e+003,6.435845e+001
2.696209e+003,6.699860e+001
2.698138e+003,6.831303e+001
2.700066e+003,7.173220e+001
2.701995e+003,7.494796e+001
2.703923e+003,7.104658e+001
2.705852e+003,6.396883e+001
2.707780e+003,6.442418e+001
2.709708e+003,6.878893e+001
2.711637e+003,6.649729e+001
2.713565e+003,6.161553e+001
2.715494e+003,6.639049e+001
2.717422e+003,7.438521e+001
2.719351e+003,7.064785e+001
2.721279e+003,6.154063e+001
2.723208e+003,6.103714e+001
2.725136e+003,6.539494e+001
2.727065e+003,6.746031e+001
2.728993e+003,6.778270e+001
2.730922e+003,6.751337e+001
2.732850e+003,6.613374e+001
2.734779e+003,6.052716e+001
2.736707e+003,5.463984e+001
2.738635e+003,5.759730e+001
2.740564e+003,6.414858e+001
2.742492e+003,6.425758e+001
2.744421e+003,6.219866e+001
2.746349e+003,6.472191e+001
2.748278e+003,6.912032e+001
2.750206e+003,7.170052e+001
2.752135e+003,7.340276e+001
2.754063e+003,7.617398e+001
2.755992e+003,7.835377e+001
2.757920e+003,7.694781e+001
2.759849e+003,7.445400e+001
2.761777e+003,7.352150e+001
2.763706e+003,7.325526e+001
2.765634e+003,7.342582e+001
2.767563e+003,7.289985e+001
2.769491e+003,6.851339e+001
2.771419e+003,6.495657e+001
2.773348e+003,6.792059e+001
2.775276e+003,7.199725e+001
2.777205e+003,7.266362e+001
2.779133e+003,7.206863e+001
2.781062e+003,7.199358e+001
2.782990e+003,7.145398e+001
2.784919e+003,6.704904e+001
2.786847e+003,6.543384e+001
2.788776e+003,7.614274e+001
2.790704e+003,8.362759e+001
2.792633e+003,7.481883e+001
2.794561e+003,6.469073e+001
2.796490e+003,5.874414e+001
2.798418e+003,5.860041e+001
2.800346e+003,6.900523e+001
2.802275e+003,7.771130e+001
2.804203e+003,7.658208e+001
2.806132e+003,7.596785e+001
2.808060e+003,7.945011e+001
2.809989e+003,8.530434e+001
2.811917e+003,9.601804e+001
2.813846e+003,1.020041e+002
2.815774e+003,9.821395e+001
2.817703e+003,9.458596e+001
2.819631e+003,9.567886e+001
2.821560e+003,9.457616e+001
2.823488e+003,8.832324e+001
2.825417e+003,8.454280e+001
2.827345e+003,8.496201e+001
2.829273e+003,8.486263e+001
2.831202e+003,8.224005e+001
2.833130e+003,8.284670e+001
2.835059e+003,8.996085e+001
2.836987e+003,9.289131e+001
2.838916e+003,9.011723e+001
2.840844e+003,9.329545e+001
2.842773e+003,1.043842e+002
2.844701e+003,1.067665e+002
2.846630e+003,9.666250e+001
2.848558e+003,9.617794e+001
2.850487e+003,1.060014e+002
2.852415e+003,1.079145e+002
2.854344e+003,1.031542e+002
2.856272e+003,1.082902e+002
2.858200e+003,1.214845e+002
2.860129e+003,1.218403e+002
2.862057e+003,1.121083e+002
2.863986e+003,1.062807e+002
2.865914e+003,1.047052e+002
2.867843e+003,1.112617e+002
2.869771e+003,1.215672e+002
2.871700e+003,1.246175e+002
2.873628e+003,1.250160e+002
2.875557e+003,1.347240e+002
2.877485e+003,1.453518e+002
2.879414e+003,1.427061e+002
2.881342e+003,1.347318e+002
2.883271e+003,1.277016e+002
2.885199e+003,1.227845e+002
2.887127e+003,1.224647e+002
2.889056e+003,1.232006e+002
2.890984e+003,1.220592e+002
2.892913e+003,1.210083e+002
2.894841e+003,1.198631e+002
2.896770e+003,1.212076e+002
2.898698e+003,1.296425e+002
2.900627e+003,1.355992e+002
2.902555e+003,1.325485e+002
2.904484e+003,1.324863e+002
2.906412e+003,1.376552e+002
2.908341e+003,1.499051e+002
2.910269e+003,1.707262e+002
2.912198e+003,1.964608e+002
2.914126e+003,2.225770e+002
2.916054e+003,2.665661e+002
2.917983e+003,3.298781e+002
2.919911e+003,4.167660e+002
2.921840e+003,5.359509e+002
2.923768e+003,6.529804e+002
2.925697e+003,7.742578e+002
2.927625e+003,8.197899e+002
2.929554e+003,7.916864e+002
2.931482e+003,7.143484e+002
2.933411e+003,6.014075e+002
2.935339e+003,5.354985e+002
2.937268e+003,5.132354e+002
2.939196e+003,5.313367e+002
2.941125e+003,5.765485e+002
2.943053e+003,6.241175e+002
2.944981e+003,6.704816e+002
2.946910e+003,7.144392e+002
2.948838e+003,7.492223e+002
2.950767e+003,7.694677e+002
2.952695e+003,7.715000e+002
2.954624e+003,7.591678e+002
2.956552e+003,7.199367e+002
2.958481e+003,6.307117e+002
2.960409e+003,5.318734e+002
2.962338e+003,4.390445e+002
2.964266e+003,3.511732e+002
2.966195e+003,2.580404e+002
2.968123e+003,1.926782e+002
2.970052e+003,1.794774e+002
2.971980e+003,1.704876e+002
2.973908e+003,1.568740e+002
2.975837e+003,1.553244e+002
2.977765e+003,1.676009e+002
2.979694e+003,1.969645e+002
2.981622e+003,2.514608e+002
2.983551e+003,2.810863e+002
2.985479e+003,2.856454e+002
2.987408e+003,2.642643e+002
2.989336e+003,2.223143e+002
2.991265e+003,1.855073e+002
2.993193e+003,1.549370e+002
2.995122e+003,1.345422e+002
2.997050e+003,1.208230e+002
2.998979e+003,1.059061e+002
3.000907e+003,9.346773e+001
3.002835e+003,8.834283e+001
3.004764e+003,8.755318e+001
3.006692e+003,9.201432e+001
3.008621e+003,9.403154e+001
3.010549e+003,8.518067e+001
3.012478e+003,7.866456e+001
3.014406e+003,8.518874e+001
3.016335e+003,8.864685e+001
3.018263e+003,8.007208e+001
3.020192e+003,7.459543e+001
3.022120e+003,7.452296e+001
3.024049e+003,7.736234e+001
3.025977e+003,8.444222e+001
3.027906e+003,8.661834e+001
3.029834e+003,8.265999e+001
3.031762e+003,8.157436e+001
3.033691e+003,8.286276e+001
3.035619e+003,7.837440e+001
3.037548e+003,7.088935e+001
3.039476e+003,7.628000e+001
3.041405e+003,8.742603e+001
3.043333e+003,8.497684e+001
3.045262e+003,7.733620e+001
3.047190e+003,7.420000e+001
3.049119e+003,7.437466e+001
3.051047e+003,7.840426e+001
3.052976e+003,8.283565e+001
3.054904e+003,8.741125e+001
3.056833e+003,8.811391e+001
3.058761e+003,7.997377e+001
3.060689e+003,7.335105e+001
3.062618e+003,7.159657e+001
3.064546e+003,6.988000e+001
3.066475e+003,6.713713e+001
3.068403e+003,6.833650e+001
3.070332e+003,7.563177e+001
3.072260e+003,7.817713e+001
3.074189e+003,7.595099e+001
3.076117e+003,7.692249e+001
3.078046e+003,7.968594e+001
3.079974e+003,7.730686e+001
3.081903e+003,7.300748e+001
3.083831e+003,7.552276e+001
3.085760e+003,7.956423e+001
3.087688e+003,7.691408e+001
3.089616e+003,7.377483e+001
3.091545e+003,7.641462e+001
3.093473e+003,7.856319e+001
3.095402e+003,7.517863e+001
3.097330e+003,7.295853e+001
3.099259e+003,7.403951e+001
3.101187e+003,7.577773e+001
3.103116e+003,7.901893e+001
3.105044e+003,7.903220e+001
3.106973e+003,7.537396e+001
3.108901e+003,7.183270e+001
3.110830e+003,6.896899e+001
3.112758e+003,7.166458e+001
3.114687e+003,7.827354e+001
3.116615e+003,8.074541e+001
3.118543e+003,8.071268e+001
3.120472e+003,8.122527e+001
3.122400e+003,8.176389e+001
3.124329e+003,8.146653e+001
3.126257e+003,8.128585e+001
3.128186e+003,8.163334e+001
3.130114e+003,8.295604e+001
3.132043e+003,8.738992e+001
3.133971e+003,8.927991e+001
3.135900e+003,8.501945e+001
3.137828e+003,8.391866e+001
3.139757e+003,8.699297e+001
3.141685e+003,9.240959e+001
3.143614e+003,1.002886e+002
3.145542e+003,9.888740e+001
3.147470e+003,9.072530e+001
3.149399e+003,9.289891e+001
3.151327e+003,1.017494e+002
3.153256e+003,1.130304e+002
3.155184e+003,1.223716e+002
3.157113e+003,1.193269e+002
3.159041e+003,1.186044e+002
3.160970e+003,1.351007e+002
3.162898e+003,1.481959e+002
3.164827e+003,1.426472e+002
3.166755e+003,1.444300e+002
3.168684e+003,1.606869e+002
3.170612e+003,1.705130e+002
3.172541e+003,1.703707e+002
3.174469e+003,1.675053e+002
3.176397e+003,1.623186e+002
3.178326e+003,1.600639e+002
3.180254e+003,1.602815e+002
3.182183e+003,1.627562e+002
3.184111e+003,1.653097e+002
3.186040e+003,1.622549e+002
3.187968e+003,1.605696e+002
3.189897e+003,1.700204e+002
3.191825e+003,1.759643e+002
3.193754e+003,1.639610e+002
3.195682e+003,1.601953e+002
3.197611e+003,1.725828e+002
3.199539e+003,1.834033e+002
3.201468e+003,1.901381e+002
3.203396e+003,1.945672e+002
3.205324e+003,1.968238e+002
3.207253e+003,1.913710e+002
3.209181e+003,1.817930e+002
3.211110e+003,1.809357e+002
3.213038e+003,1.813279e+002
3.214967e+003,1.679176e+002
3.216895e+003,1.544873e+002
3.218824e+003,1.528515e+002
3.220752e+003,1.527899e+002
3.222681e+003,1.513286e+002
3.224609e+003,1.456934e+002
3.226538e+003,1.337947e+002
3.228466e+003,1.259095e+002
3.230395e+003,1.235114e+002
3.232323e+003,1.256114e+002
3.234251e+003,1.310089e+002
3.236180e+003,1.284208e+002
3.238108e+003,1.211427e+002
3.240037e+003,1.136409e+002
3.241965e+003,1.091343e+002
3.243894e+003,1.146773e+002
3.245822e+003,1.197404e+002
3.247751e+003,1.175550e+002
3.249679e+003,1.155033e+002
3.251608e+003,1.182579e+002
3.253536e+003,1.162526e+002
3.255465e+003,1.081153e+002
3.257393e+003,1.039224e+002
3.259322e+003,1.041340e+002
3.261250e+003,1.018882e+002
3.263178e+003,9.923856e+001
3.265107e+003,1.030274e+002
3.267035e+003,1.100381e+002
3.268964e+003,1.193387e+002
3.270892e+003,1.258505e+002
3.272821e+003,1.256932e+002
3.274749e+003,1.225071e+002
3.276678e+003,1.158280e+002
3.278606e+003,1.108364e+002
3.280535e+003,1.084069e+002
3.282463e+003,1.068750e+002
3.284392e+003,1.060854e+002
3.286320e+003,1.046768e+002
3.288249e+003,1.036068e+002
3.290177e+003,1.071057e+002
3.292105e+003,1.106951e+002
3.294034e+003,1.087707e+002
3.295962e+003,1.062318e+002
3.297891e+003,1.061936e+002
3.299819e+003,1.062319e+002
3.301748e+003,1.061553e+002
3.303676e+003,1.037439e+002
3.305605e+003,9.732656e+001
3.307533e+003,9.880337e+001
3.309462e+003,1.064880e+002
3.311390e+003,1.116621e+002
3.313319e+003,1.133623e+002
3.315247e+003,1.065584e+002
3.317176e+003,1.000827e+002
3.319104e+003,1.040106e+002
3.321032e+003,1.062109e+002
3.322961e+003,1.000844e+002
3.324889e+003,9.311610e+001
3.326818e+003,8.574432e+001
3.328746e+003,8.190253e+001
3.330675e+003,8.169426e+001
3.332603e+003,8.164984e+001
3.334532e+003,8.136060e+001
3.336460e+003,7.881290e+001
3.338389e+003,7.659550e+001
3.340317e+003,7.900027e+001
3.342246e+003,8.033286e+001
3.344174e+003,7.649158e+001
3.346103e+003,7.355941e+001
3.348031e+003,7.367593e+001
3.349959e+003,7.059120e+001
3.351888e+003,6.349752e+001
3.353816e+003,6.046464e+001
3.355745e+003,6.045460e+001
3.357673e+003,5.985254e+001
3.359602e+003,6.013309e+001
3.361530e+003,6.546947e+001
3.363459e+003,6.919987e+001
3.365387e+003,6.642535e+001
3.367316e+003,6.324279e+001
3.369244e+003,6.079768e+001
3.371173e+003,5.899345e+001
3.373101e+003,5.802477e+001
3.375030e+003,6.383581e+001
3.376958e+003,7.304207e+001
3.378886e+003,7.080351e+001
3.380815e+003,6.756928e+001
3.382743e+003,7.605006e+001
3.384672e+003,8.757871e+001
3.386600e+003,9.812305e+001
3.388529e+003,1.084206e+002
3.390457e+003,1.191075e+002
3.392386e+003,1.261315e+002
3.394314e+003,1.292274e+002
3.396243e+003,1.324817e+002
3.398171e+003,1.361310e+002
3.400100e+003,1.418773e+002
3.402028e+003,1.468416e+002
3.403957e+003,1.507282e+002
3.405885e+003,1.472143e+002
3.407813e+003,1.283916e+002
3.409742e+003,1.156639e+002
3.411670e+003,1.142813e+002
3.413599e+003,1.065611e+002
3.415527e+003,9.387905e+001
3.417456e+003,9.138626e+001
3.419384e+003,9.171785e+001
3.421313e+003,7.819868e+001
3.423241e+003,6.331761e+001
3.425170e+003,5.646093e+001
3.427098e+003,5.006307e+001
3.429027e+003,4.010183e+001
3.430955e+003,3.906689e+001
3.432884e+003,4.865157e+001
3.434812e+003,5.051896e+001
3.436740e+003,4.654747e+001
3.438669e+003,4.340751e+001
3.440597e+003,4.093410e+001
3.442526e+003,3.939150e+001
3.444454e+003,3.765696e+001
3.446383e+003,3.481104e+001
3.448311e+003,3.303027e+001
3.450240e+003,3.277911e+001
3.452168e+003,3.456179e+001
3.454097e+003,3.771852e+001
3.456025e+003,3.811409e+001
3.457954e+003,3.655074e+001
3.459882e+003,3.185393e+001
3.461811e+003,2.967341e+001
3.463739e+003,3.501637e+001
3.465667e+003,3.839693e+001
3.467596e+003,3.607786e+001
3.469524e+003,3.285106e+001
3.471453e+003,2.931832e+001
3.473381e+003,3.155223e+001
3.475310e+003,3.604230e+001
3.477238e+003,3.536432e+001
3.479167e+003,3.359998e+001
3.481095e+003,3.281713e+001
3.483024e+003,3.409544e+001
3.484952e+003,3.933548e+001
3.486881e+003,3.968521e+001
3.488809e+003,3.489860e+001
3.490738e+003,3.199683e+001
3.492666e+003,3.119734e+001
3.494594e+003,3.502560e+001
3.496523e+003,3.782442e+001
3.498451e+003,3.301874e+001
3.500380e+003,2.973443e+001
3.502308e+003,3.073993e+001
3.504237e+003,3.150943e+001
3.506165e+003,3.148947e+001
3.508094e+003,3.219939e+001
3.510022e+003,3.325472e+001
3.511951e+003,3.400143e+001
3.513879e+003,3.418435e+001
3.515808e+003,3.361045e+001
3.517736e+003,3.203932e+001
3.519665e+003,2.874312e+001
3.521593e+003,2.866690e+001
3.523521e+003,3.216583e+001
3.525450e+003,3.247231e+001
3.527378e+003,3.076703e+001
3.529307e+003,2.820671e+001
3.531235e+003,2.712035e+001
3.533164e+003,3.078263e+001
3.535092e+003,3.251571e+001
3.537021e+003,2.880135e+001
3.538949e+003,2.967183e+001
3.540878e+003,3.438631e+001
3.542806e+003,3.205384e+001
3.544735e+003,2.733106e+001
3.546663e+003,2.741208e+001
3.548592e+003,2.954787e+001
3.550520e+003,3.377036e+001
3.552448e+003,3.471996e+001
3.554377e+003,3.055215e+001
3.556305e+003,2.653091e+001
3.558234e+003,2.294986e+001
3.560162e+003,1.927226e+001
3.562091e+003,1.752839e+001
3.564019e+003,2.212774e+001
3.565948e+003,2.635259e+001
3.567876e+003,2.629493e+001
3.569805e+003,2.714701e+001
3.571733e+003,2.930055e+001
3.573662e+003,3.163474e+001
3.575590e+003,3.364281e+001
3.577519e+003,3.445408e+001
3.579447e+003,3.369777e+001
3.581376e+003,2.876088e+001
3.583304e+003,2.764334e+001
3.585233e+003,3.423973e+001
3.587161e+003,3.412751e+001
3.589090e+003,2.764182e+001
3.591018e+003,2.697371e+001
3.592947e+003,2.938204e+001
3.594875e+003,3.249297e+001
3.596803e+003,3.341344e+001
3.598732e+003,2.853642e+001
3.600660e+003,2.531445e+001
3.602589e+003,2.451518e+001
3.604517e+003,2.947446e+001
3.606446e+003,3.495250e+001
3.608374e+003,1.829463e+001
3.610303e+003,3.006397e+000
3.612231e+003,1.290233e+001
3.614160e+003,2.126613e+001
3.616088e+003,2.155205e+001
3.618017e+003,2.331469e+001
3.619945e+003,2.669086e+001
3.621874e+003,2.554539e+001
3.623802e+003,2.403158e+001
3.625730e+003,2.951528e+001
3.627659e+003,3.207726e+001
3.629587e+003,2.563182e+001
3.631516e+003,2.297977e+001
3.633444e+003,2.569555e+001
3.635373e+003,2.352065e+001
3.637301e+003,2.030585e+001
3.639230e+003,2.631105e+001
3.641158e+003,3.102324e+001
3.643087e+003,2.465570e+001
3.645015e+003,2.198803e+001
3.646944e+003,2.536853e+001
3.648872e+003,2.343716e+001
3.650801e+003,1.853842e+001
3.652729e+003,1.907389e+001
3.654657e+003,2.318897e+001
3.656586e+003,3.403437e+001
3.658514e+003,3.816338e+001
3.660443e+003,3.208776e+001
3.662371e+003,2.619954e+001
3.664300e+003,2.182482e+001
3.666228e+003,2.321784e+001
3.668157e+003,2.591226e+001
3.670085e+003,2.473545e+001
3.672014e+003,2.462813e+001
3.673942e+003,2.718566e+001
3.675871e+003,2.945403e+001
3.677799e+003,3.079054e+001
3.679728e+003,2.643311e+001
3.681656e+003,2.193019e+001
3.683584e+003,2.554801e+001
3.685513e+003,2.781518e+001
3.687441e+003,2.455307e+001
3.689370e+003,2.584223e+001
3.691298e+003,3.197068e+001
3.693227e+003,3.413001e+001
3.695155e+003,3.223364e+001
3.697084e+003,2.269959e+001
3.699012e+003,1.743304e+001
3.700941e+003,2.263974e+001
3.702869e+003,2.466006e+001
3.704798e+003,2.265607e+001
3.706726e+003,2.946939e+001
3.708655e+003,3.785604e+001
3.710583e+003,3.766073e+001
3.712511e+003,3.490567e+001
3.714440e+003,3.145644e+001
3.716368e+003,2.936477e+001
3.718297e+003,2.871866e+001
3.720225e+003,2.594236e+001
3.722154e+003,2.447793e+001
3.724082e+003,3.329112e+001
3.726011e+003,3.618805e+001
3.727939e+003,2.323692e+001
3.729868e+003,1.740622e+001
3.731796e+003,2.054461e+001
3.733725e+003,2.899297e+001
3.735653e+003,3.587267e+001
3.737582e+003,2.970102e+001
3.739510e+003,2.429654e+001
3.741438e+003,2.507652e+001
3.743367e+003,2.701520e+001
3.745295e+003,2.924278e+001
3.747224e+003,2.816135e+001
3.749152e+003,2.644114e+001
3.751081e+003,2.791861e+001
3.753009e+003,2.781696e+001
3.754938e+003,2.369598e+001
3.756866e+003,2.492196e+001
3.758795e+003,2.988953e+001
3.760723e+003,2.808802e+001
3.762652e+003,2.489424e+001
3.764580e+003,2.384952e+001
3.766509e+003,2.710063e+001
3.768437e+003,3.647649e+001
3.770365e+003,3.247933e+001
3.772294e+003,2.088762e+001
3.774222e+003,2.153325e+001
3.776151e+003,2.562443e+001
3.778079e+003,2.804407e+001
3.780008e+003,2.834262e+001
3.781936e+003,2.649839e+001
3.783865e+003,2.779494e+001
3.785793e+003,2.933835e+001
3.787722e+003,2.275447e+001
3.789650e+003,1.782849e+001
3.791579e+003,2.053993e+001
3.793507e+003,2.254419e+001
3.795436e+003,2.320259e+001
3.797364e+003,2.525348e+001
3.799292e+003,2.783421e+001
3.801221e+003,3.052921e+001
3.803149e+003,3.174637e+001
3.805078e+003,3.065731e+001
3.807006e+003,2.910799e+001
3.808935e+003,2.707300e+001
3.810863e+003,2.215318e+001
3.812792e+003,1.938161e+001
3.814720e+003,2.533152e+001
3.816649e+003,2.940195e+001
3.818577e+003,2.893465e+001
3.820506e+003,2.917137e+001
3.822434e+003,2.881179e+001
3.824363e+003,2.403238e+001
3.826291e+003,1.998186e+001
3.828219e+003,1.911272e+001
3.830148e+003,2.039597e+001
3.832076e+003,2.346059e+001
3.834005e+003,2.574453e+001
3.835933e+003,2.754911e+001
3.837862e+003,2.962060e+001
3.839790e+003,3.049494e+001
3.841719e+003,2.987087e+001
3.843647e+003,2.773926e+001
3.845576e+003,2.524030e+001
3.847504e+003,2.675961e+001
3.849433e+003,2.776036e+001
3.851361e+003,2.361523e+001
3.853290e+003,2.314005e+001
3.855218e+003,2.631662e+001
3.857146e+003,2.441501e+001
3.859075e+003,1.860472e+001
3.861003e+003,6.251982e+000
3.862932e+003,1.819947e+000
3.864860e+003,1.331068e+001
3.866789e+003,2.015244e+001
3.868717e+003,2.254681e+001
3.870646e+003,2.239747e+001
3.872574e+003,2.154894e+001
3.874503e+003,2.053858e+001
3.876431e+003,2.180006e+001
3.878360e+003,2.529317e+001
3.880288e+003,2.750963e+001
3.882217e+003,2.767836e+001
3.884145e+003,2.197449e+001
3.886073e+003,1.975952e+001
3.888002e+003,2.433380e+001
3.889930e+003,2.907803e+001
3.891859e+003,3.231805e+001
3.893787e+003,2.914148e+001
3.895716e+003,2.591649e+001
3.897644e+003,2.616255e+001
3.899573e+003,2.623945e+001
3.901501e+003,2.590756e+001
3.903430e+003,2.795484e+001
3.905358e+003,2.891111e+001
3.907287e+003,2.491345e+001
3.909215e+003,1.892391e+001
3.911144e+003,1.179218e+001
3.913072e+003,1.507087e+001
3.915000e+003,2.307674e+001
3.916929e+003,2.759127e+001
3.918857e+003,2.790697e+001
3.920786e+003,2.174671e+001
3.922714e+003,1.923545e+001
3.924643e+003,1.984628e+001
3.926571e+003,2.095572e+001
3.928500e+003,2.239711e+001
3.930428e+003,2.435105e+001
3.932357e+003,2.480056e+001
3.934285e+003,2.428455e+001
3.936214e+003,3.257131e+001
3.938142e+003,3.836678e+001
3.940071e+003,2.469802e+001
3.941999e+003,1.935525e+001
3.943927e+003,2.936410e+001
3.945856e+003,2.890563e+001
3.947784e+003,2.414051e+001
3.949713e+003,2.513836e+001
3.951641e+003,2.361194e+001
3.953570e+003,1.679530e+001
3.955498e+003,1.603679e+001
3.957427e+003,1.958011e+001
3.959355e+003,2.238446e+001
3.961284e+003,2.555714e+001
3.963212e+003,3.137788e+001
3.965141e+003,3.017245e+001
3.967069e+003,2.372937e+001
3.968998e+003,2.095572e+001
3.970926e+003,2.099007e+001
3.972854e+003,2.488165e+001
3.974783e+003,2.426048e+001
3.976711e+003,1.995824e+001
3.978640e+003,2.735259e+001
3.980568e+003,3.339224e+001
3.982497e+003,2.235087e+001
3.984425e+003,1.717540e+001
3.986354e+003,2.245621e+001
3.988282e+003,2.200383e+001
3.990211e+003,1.972031e+001
3.992139e+003,1.986964e+001
3.994068e+003,2.225382e+001
3.995996e+003,2.677391e+001
3.997925e+003,2.331316e+001
3.999853e+003,1.719003e+001
4.001781e+003,1.648372e+001
4.003710e+003,2.001701e+001
4.005638e+003,2.834617e+001
4.007567e+003,2.507007e+001
4.009495e+003,1.674726e+001
4.011424e+003,1.756159e+001
4.013352e+003,2.237047e+001
4.015281e+003,3.353854e+001
4.017209e+003,3.130055e+001
4.019138e+003,2.158191e+001
4.021066e+003,1.900050e+001
4.022995e+003,1.947251e+001
4.024923e+003,2.131624e+001
4.026852e+003,2.382364e+001
4.028780e+003,2.598458e+001
4.030708e+003,2.272894e+001
4.032637e+003,2.153148e+001
4.034565e+003,2.780466e+001
4.036494e+003,2.969010e+001
4.038422e+003,2.734138e+001
4.040351e+003,2.468573e+001
4.042279e+003,2.233073e+001
4.044208e+003,2.066064e+001
4.046136e+003,1.841321e+001
4.048065e+003,1.726655e+001
4.049993e+003,2.678098e+001
4.051922e+003,3.398634e+001
4.053850e+003,3.050455e+001
4.055779e+003,2.583604e+001
4.057707e+003,2.158812e+001
4.059635e+003,2.083948e+001
4.061564e+003,1.968936e+001
4.063492e+003,1.422542e+001
4.065421e+003,1.549523e+001
4.067349e+003,2.241990e+001
4.069278e+003,2.246320e+001
4.071206e+003,2.078744e+001
4.073135e+003,2.003900e+001
4.075063e+003,2.225158e+001
4.076992e+003,2.593494e+001
4.078920e+003,2.202944e+001
4.080849e+003,1.903652e+001
4.082777e+003,2.479593e+001
4.084706e+003,2.212141e+001
4.086634e+003,1.329213e+001
4.088563e+003,1.169745e+001
4.090491e+003,1.397990e+001
4.092419e+003,1.882402e+001
4.094348e+003,2.153332e+001
4.096276e+003,2.248673e+001
4.098205e+003,2.537615e+001
4.100133e+003,2.698312e+001
4.102062e+003,2.527858e+001
4.103990e+003,2.194196e+001
4.105919e+003,1.850204e+001
4.107847e+003,2.006134e+001
4.109776e+003,2.235231e+001
4.111704e+003,2.338098e+001
4.113633e+003,2.375145e+001
4.115561e+003,2.365129e+001
4.117490e+003,2.286333e+001
4.119418e+003,2.380489e+001
4.121347e+003,2.803875e+001
4.123275e+003,2.416499e+001
4.125204e+003,1.778968e+001
4.127132e+003,2.326413e+001
4.129061e+003,2.450209e+001
4.130989e+003,1.696878e+001
4.132917e+003,1.235271e+001
4.134846e+003,1.233650e+001
4.136774e+003,2.195975e+001
4.138703e+003,2.714410e+001
4.140631e+003,2.428852e+001
4.142560e+003,2.481860e+001
4.144488e+003,2.568549e+001
4.146417e+003,2.254790e+001
4.148345e+003,1.978780e+001
4.150273e+003,1.821970e+001
4.152202e+003,1.901325e+001
4.154130e+003,2.043191e+001
4.156059e+003,2.093010e+001
4.157987e+003,2.124417e+001
4.159916e+003,2.176335e+001
4.161844e+003,2.559429e+001
4.163773e+003,2.744861e+001
4.165701e+003,2.152313e+001
4.167630e+003,2.198147e+001
4.169558e+003,2.574948e+001
4.171487e+003,2.020366e+001
4.173415e+003,1.608429e+001
4.175344e+003,1.806142e+001
4.177272e+003,1.948591e+001
4.179201e+003,2.039688e+001
4.181129e+003,2.153654e+001
4.183058e+003,2.357057e+001
4.184986e+003,2.650969e+001
4.186915e+003,2.313256e+001
4.188843e+003,1.918174e+001
4.190771e+003,2.201293e+001
4.192700e+003,2.655334e+001
4.194628e+003,3.105236e+001
4.196557e+003,2.155752e+001
4.198485e+003,1.380983e+001
4.200414e+003,2.139800e+001
4.202342e+003,2.622154e+001
4.204271e+003,2.617191e+001
4.206199e+003,1.782910e+001
4.208127e+003,1.069844e+001
4.210056e+003,8.917502e+000
4.211984e+003,1.446218e+001
4.213913e+003,2.272962e+001
4.215841e+003,2.521131e+001
4.217770e+003,2.417641e+001
4.219698e+003,1.956925e+001
4.221627e+003,2.026192e+001
4.223555e+003,2.187909e+001
4.225484e+003,1.815323e+001
4.227412e+003,1.794633e+001
4.229341e+003,2.114010e+001
4.231269e+003,1.658433e+001
4.233198e+003,1.394302e+001
4.235126e+003,2.242922e+001
4.237055e+003,2.774010e+001
4.238983e+003,2.814799e+001
4.240912e+003,1.698201e+001
4.242840e+003,1.072887e+001
4.244769e+003,1.578873e+001
4.246697e+003,2.006237e+001
4.248625e+003,2.295003e+001
4.250554e+003,2.422056e+001
