1.159199e+002,5.370569e+001
1.178484e+002,6.318249e+001
1.197769e+002,7.413115e+001
1.217053e+002,8.676761e+001
1.236338e+002,9.377236e+001
1.255623e+002,9.302016e+001
1.274907e+002,8.781503e+001
1.294192e+002,8.152753e+001
1.313477e+002,7.266808e+001
1.332761e+002,6.436298e+001
1.352046e+002,5.722372e+001
1.371331e+002,5.126822e+001
1.390615e+002,4.692482e+001
1.409900e+002,4.448539e+001
1.429185e+002,4.369585e+001
1.448469e+002,4.460002e+001
1.467754e+002,5.132678e+001
1.487039e+002,5.620361e+001
1.506323e+002,5.409488e+001
1.525608e+002,4.416628e+001
1.544893e+002,3.739636e+001
1.564177e+002,3.741220e+001
1.583462e+002,4.266586e+001
1.602747e+002,4.555577e+001
1.622031e+002,4.506536e+001
1.641316e+002,4.383665e+001
1.660601e+002,4.326433e+001
1.679885e+002,4.333612e+001
1.699170e+002,4.402059e+001
1.718455e+002,4.588575e+001
1.737739e+002,4.884795e+001
1.757024e+002,5.014960e+001
1.776309e+002,4.885203e+001
1.795593e+002,4.642157e+001
1.814878e+002,4.414111e+001
1.834163e+002,4.316515e+001
1.853447e+002,4.116677e+001
1.872732e+002,3.617263e+001
1.892017e+002,2.854737e+001
1.911301e+002,2.439216e+001
1.930586e+002,2.711263e+001
1.949871e+002,3.290354e+001
1.969155e+002,3.721655e+001
1.988440e+002,3.936488e+001
2.007725e+002,4.104819e+001
2.027009e+002,4.325943e+001
2.046294e+002,4.635014e+001
2.065579e+002,4.713377e+001
2.084864e+002,4.387589e+001
2.104148e+002,3.818916e+001
2.123433e+002,3.360618e+001
2.142718e+002,2.994833e+001
2.162002e+002,2.745800e+001
2.181287e+002,2.619512e+001
2.200572e+002,2.656668e+001
2.219856e+002,2.719622e+001
2.239141e+002,2.865114e+001
2.258426e+002,3.023265e+001
2.277710e+002,3.041197e+001
2.296995e+002,2.841011e+001
2.316280e+002,2.582153e+001
2.335564e+002,2.337715e+001
2.354849e+002,2.054017e+001
2.374134e+002,1.866889e+001
2.393418e+002,1.865089e+001
2.412703e+002,1.962482e+001
2.431988e+002,1.970432e+001
2.451272e+002,1.787050e+001
2.470557e+002,1.570526e+001
2.489842e+002,1.387443e+001
2.509126e+002,1.231249e+001
2.528411e+002,1.123877e+001
2.547696e+002,1.088371e+001
2.566980e+002,1.107932e+001
2.586265e+002,1.148882e+001
2.605550e+002,1.258488e+001
2.624834e+002,1.354711e+001
2.644119e+002,1.408976e+001
2.663404e+002,1.447164e+001
2.682688e+002,1.372183e+001
2.701973e+002,9.434099e+000
2.721258e+002,2.957378e+000
2.740542e+002,1.353269e+000
2.759827e+002,9.039508e+000
2.779112e+002,1.787912e+001
2.798396e+002,2.366710e+001
2.817681e+002,2.652852e+001
2.836966e+002,2.735141e+001
2.856250e+002,2.543538e+001
2.875535e+002,2.151764e+001
2.894820e+002,1.857054e+001
2.914104e+002,1.720418e+001
2.933389e+002,1.614006e+001
2.952674e+002,1.449689e+001
2.971958e+002,1.181922e+001
2.991243e+002,1.053603e+001
3.010528e+002,1.167234e+001
3.029813e+002,1.448410e+001
3.049097e+002,1.663567e+001
3.068382e+002,1.820512e+001
3.087667e+002,1.904181e+001
3.106951e+002,1.879309e+001
3.126236e+002,1.674154e+001
3.145521e+002,1.596812e+001
3.164805e+002,1.740855e+001
3.184090e+002,2.020698e+001
3.203375e+002,2.253145e+001
3.222659e+002,2.430645e+001
3.241944e+002,2.572940e+001
3.261229e+002,2.692281e+001
3.280513e+002,2.786420e+001
3.299798e+002,2.858257e+001
3.319083e+002,2.901640e+001
3.338367e+002,2.923570e+001
3.357652e+002,2.938823e+001
3.376937e+002,2.956928e+001
3.396221e+002,2.948223e+001
3.415506e+002,2.925372e+001
3.434791e+002,2.901382e+001
3.454075e+002,2.762775e+001
3.473360e+002,2.358748e+001
3.492645e+002,1.930104e+001
3.511929e+002,1.688100e+001
3.531214e+002,1.749847e+001
3.550499e+002,1.782264e+001
3.569783e+002,1.658223e+001
3.589068e+002,1.385697e+001
3.608353e+002,1.247464e+001
3.627637e+002,1.380263e+001
3.646922e+002,1.541073e+001
3.666207e+002,1.574431e+001
3.685491e+002,1.380388e+001
3.704776e+002,1.272612e+001
3.724061e+002,1.363881e+001
3.743345e+002,1.588362e+001
3.762630e+002,1.699814e+001
3.781915e+002,1.604990e+001
3.801199e+002,1.503522e+001
3.820484e+002,1.496042e+001
3.839769e+002,1.648028e+001
3.859053e+002,1.733787e+001
3.878338e+002,1.629728e+001
3.897623e+002,1.485619e+001
3.916907e+002,1.546749e+001
3.936192e+002,1.943803e+001
3.955477e+002,2.318002e+001
3.974761e+002,2.540854e+001
3.994046e+002,2.579868e+001
4.013331e+002,2.635242e+001
4.032615e+002,2.730222e+001
4.051900e+002,2.827454e+001
4.071185e+002,2.875544e+001
4.090469e+002,2.821834e+001
4.109754e+002,2.877622e+001
4.129039e+002,3.200678e+001
4.148323e+002,3.721175e+001
4.167608e+002,3.982840e+001
4.186893e+002,3.742648e+001
4.206177e+002,3.479041e+001
4.225462e+002,3.431601e+001
4.244747e+002,3.631979e+001
4.264032e+002,3.792441e+001
4.283316e+002,3.826443e+001
4.302601e+002,3.803811e+001
4.321886e+002,3.829345e+001
4.341170e+002,3.823888e+001
4.360455e+002,3.968682e+001
4.379740e+002,4.413005e+001
4.399024e+002,5.123288e+001
4.418309e+002,5.728908e+001
4.437594e+002,6.382135e+001
4.456878e+002,6.815354e+001
4.476163e+002,6.725263e+001
4.495448e+002,5.993209e+001
4.514732e+002,5.268550e+001
4.534017e+002,4.679878e+001
4.553302e+002,4.196465e+001
4.572586e+002,3.778537e+001
4.591871e+002,3.006292e+001
4.611156e+002,2.700962e+001
4.630440e+002,3.407711e+001
4.649725e+002,5.097233e+001
4.669010e+002,6.501218e+001
4.688294e+002,7.539407e+001
4.707579e+002,8.154778e+001
4.726864e+002,8.297458e+001
4.746148e+002,7.708659e+001
4.765433e+002,6.881574e+001
4.784718e+002,5.476020e+001
4.804002e+002,3.843246e+001
4.823287e+002,2.863770e+001
4.842572e+002,2.991043e+001
4.861856e+002,3.277433e+001
4.881141e+002,3.327211e+001
4.900426e+002,3.050119e+001
4.919710e+002,2.840146e+001
4.938995e+002,2.711174e+001
4.958280e+002,2.641197e+001
4.977564e+002,2.611549e+001
4.996849e+002,2.633859e+001
5.016134e+002,2.661793e+001
5.035418e+002,2.736599e+001
5.054703e+002,2.822424e+001
5.073988e+002,2.754873e+001
5.093272e+002,2.291840e+001
5.112557e+002,1.925013e+001
5.131842e+002,1.908254e+001
5.151127e+002,2.213121e+001
5.170411e+002,2.469034e+001
5.189696e+002,2.528080e+001
5.208981e+002,2.569503e+001
5.228265e+002,2.761964e+001
5.247550e+002,3.255819e+001
5.266835e+002,3.601010e+001
5.286119e+002,3.593129e+001
5.305404e+002,3.412394e+001
5.324689e+002,3.378683e+001
5.343973e+002,3.662912e+001
5.363258e+002,3.921627e+001
5.382543e+002,4.057400e+001
5.401827e+002,4.054918e+001
5.421112e+002,4.006948e+001
5.440397e+002,3.902658e+001
5.459681e+002,3.754916e+001
5.478966e+002,3.551875e+001
5.498251e+002,3.243328e+001
5.517535e+002,3.057544e+001
5.536820e+002,3.124854e+001
5.556105e+002,3.290084e+001
5.575389e+002,3.294051e+001
5.594674e+002,3.081481e+001
5.613959e+002,2.858466e+001
5.633243e+002,2.669506e+001
5.652528e+002,2.513939e+001
5.671813e+002,2.408021e+001
5.691097e+002,2.398594e+001
5.710382e+002,2.397019e+001
5.729667e+002,2.372430e+001
5.748951e+002,2.322378e+001
5.768236e+002,2.254883e+001
5.787521e+002,2.129343e+001
5.806805e+002,2.013322e+001
5.826090e+002,1.953218e+001
5.845375e+002,1.948839e+001
5.864659e+002,2.012983e+001
5.883944e+002,2.263714e+001
5.903229e+002,2.558176e+001
5.922513e+002,2.595776e+001
5.941798e+002,2.210131e+001
5.961083e+002,1.919476e+001
5.980367e+002,1.933764e+001
5.999652e+002,2.221690e+001
6.018937e+002,2.509290e+001
6.038221e+002,2.730871e+001
6.057506e+002,3.009802e+001
6.076791e+002,3.497301e+001
6.096075e+002,4.195172e+001
6.115360e+002,4.637959e+001
6.134645e+002,4.538741e+001
6.153929e+002,4.312160e+001
6.173214e+002,4.295841e+001
6.192499e+002,4.791081e+001
6.211783e+002,4.913340e+001
6.231068e+002,4.288717e+001
6.250353e+002,3.378708e+001
6.269637e+002,2.913686e+001
6.288922e+002,3.038634e+001
6.308207e+002,3.200766e+001
6.327491e+002,3.208567e+001
6.346776e+002,3.103781e+001
6.366061e+002,3.057323e+001
6.385345e+002,3.080286e+001
6.404630e+002,3.146411e+001
6.423915e+002,3.264500e+001
6.443199e+002,3.429130e+001
6.462484e+002,3.604864e+001
6.481769e+002,3.965856e+001
6.501053e+002,4.144840e+001
6.520338e+002,3.887335e+001
6.539623e+002,2.917264e+001
6.558907e+002,2.314544e+001
6.578192e+002,2.342794e+001
6.597477e+002,2.569516e+001
6.616761e+002,2.589556e+001
6.636046e+002,2.379138e+001
6.655331e+002,2.148483e+001
6.674615e+002,1.918474e+001
6.693900e+002,1.707262e+001
6.713185e+002,1.542532e+001
6.732469e+002,1.390783e+001
6.751754e+002,1.334722e+001
6.771039e+002,1.454200e+001
6.790323e+002,1.681417e+001
6.809608e+002,1.828948e+001
6.828893e+002,1.871632e+001
6.848177e+002,1.873135e+001
6.867462e+002,1.864411e+001
6.886747e+002,1.843988e+001
6.906031e+002,1.767851e+001
6.925316e+002,1.566542e+001
6.944601e+002,1.376982e+001
6.963885e+002,1.216690e+001
6.983170e+002,1.093860e+001
7.002455e+002,1.137157e+001
7.021740e+002,1.535012e+001
7.041024e+002,1.938925e+001
7.060309e+002,2.151347e+001
7.079594e+002,2.128248e+001
7.098878e+002,2.034556e+001
7.118163e+002,1.814310e+001
7.137448e+002,1.572799e+001
7.156732e+002,1.419958e+001
7.176017e+002,1.372489e+001
7.195302e+002,1.283697e+001
7.214586e+002,9.758271e+000
7.233871e+002,6.893617e+000
7.253156e+002,6.999212e+000
7.272440e+002,1.323434e+001
7.291725e+002,1.704192e+001
7.311010e+002,1.540553e+001
7.330294e+002,1.140458e+001
7.349579e+002,1.084903e+001
7.368864e+002,1.540566e+001
7.388149e+002,1.896937e+001
7.407433e+002,1.835202e+001
7.426718e+002,1.542156e+001
7.446003e+002,1.434628e+001
7.465287e+002,1.733278e+001
7.484572e+002,1.968066e+001
7.503857e+002,2.053674e+001
7.523141e+002,2.000653e+001
7.542426e+002,1.853952e+001
7.561711e+002,1.415406e+001
7.580995e+002,1.188592e+001
7.600280e+002,1.511048e+001
7.619565e+002,2.265719e+001
7.638849e+002,2.851068e+001
7.658134e+002,3.116275e+001
7.677419e+002,3.315172e+001
7.696703e+002,3.584966e+001
7.715988e+002,3.909029e+001
7.735273e+002,3.924712e+001
7.754557e+002,3.391835e+001
7.773842e+002,2.812890e+001
7.793127e+002,2.445200e+001
7.812411e+002,2.272951e+001
7.831696e+002,2.073424e+001
7.850981e+002,1.688914e+001
7.870266e+002,1.395012e+001
7.889550e+002,1.356158e+001
7.908835e+002,1.631805e+001
7.928120e+002,1.816842e+001
7.947404e+002,1.742887e+001
7.966689e+002,1.720404e+001
7.985974e+002,2.071442e+001
8.005258e+002,2.810207e+001
8.024543e+002,3.103259e+001
8.043828e+002,2.219515e+001
8.063112e+002,1.309301e+001
8.082397e+002,1.046954e+001
8.101682e+002,1.689344e+001
8.120966e+002,2.188278e+001
8.140251e+002,2.493613e+001
8.159536e+002,2.689769e+001
8.178820e+002,2.786064e+001
8.198105e+002,2.776829e+001
8.217390e+002,2.876724e+001
8.236674e+002,3.046152e+001
8.255959e+002,3.407727e+001
8.275244e+002,4.066427e+001
8.294528e+002,5.131927e+001
8.313813e+002,6.248720e+001
8.333098e+002,7.311626e+001
8.352382e+002,8.502928e+001
8.371667e+002,1.030207e+002
8.390952e+002,1.278535e+002
8.410236e+002,1.422422e+002
8.429521e+002,1.369827e+002
8.448806e+002,1.239572e+002
8.468090e+002,1.103652e+002
8.487375e+002,9.601211e+001
8.506660e+002,8.166011e+001
8.525944e+002,6.543413e+001
8.545229e+002,5.055759e+001
8.564514e+002,3.973887e+001
8.583798e+002,3.291595e+001
8.603083e+002,2.837713e+001
8.622368e+002,2.805598e+001
8.641652e+002,2.812910e+001
8.660937e+002,2.497842e+001
8.680222e+002,1.670988e+001
8.699506e+002,1.436188e+001
8.718791e+002,2.358994e+001
8.738076e+002,3.439512e+001
8.757360e+002,3.941155e+001
8.776645e+002,3.755612e+001
8.795930e+002,3.971479e+001
8.815214e+002,4.987244e+001
8.834499e+002,6.124535e+001
8.853784e+002,7.136878e+001
8.873068e+002,8.042739e+001
8.892353e+002,8.351318e+001
8.911638e+002,7.532300e+001
8.930922e+002,6.496296e+001
8.950207e+002,5.618773e+001
8.969492e+002,4.922087e+001
8.988776e+002,4.221613e+001
9.008061e+002,3.274464e+001
9.027346e+002,2.546943e+001
9.046630e+002,2.387606e+001
9.065915e+002,2.676444e+001
9.085200e+002,2.920364e+001
9.104484e+002,3.025185e+001
9.123769e+002,3.136229e+001
9.143054e+002,3.380234e+001
9.162338e+002,3.743977e+001
9.181623e+002,3.854821e+001
9.200908e+002,3.541639e+001
9.220192e+002,3.190977e+001
9.239477e+002,2.941015e+001
9.258762e+002,2.745671e+001
9.278046e+002,2.432635e+001
9.297331e+002,1.865096e+001
9.316616e+002,1.422140e+001
9.335900e+002,1.289062e+001
9.355185e+002,1.386593e+001
9.374470e+002,1.503327e+001
9.393754e+002,1.654030e+001
9.413039e+002,1.805526e+001
9.432324e+002,2.087133e+001
9.451608e+002,2.340098e+001
9.470893e+002,2.170150e+001
9.490178e+002,1.355628e+001
9.509462e+002,7.848236e+000
9.528747e+002,8.251908e+000
9.548032e+002,1.151262e+001
9.567316e+002,1.422307e+001
9.586601e+002,1.646679e+001
9.605886e+002,1.778757e+001
9.625170e+002,1.727988e+001
9.644455e+002,1.641312e+001
9.663740e+002,1.654016e+001
9.683024e+002,1.827555e+001
9.702309e+002,1.948777e+001
9.721594e+002,2.029579e+001
9.740878e+002,2.047611e+001
9.760163e+002,1.925928e+001
9.779448e+002,1.680601e+001
9.798733e+002,1.570810e+001
9.818018e+002,1.636322e+001
9.837302e+002,1.853309e+001
9.856587e+002,2.300210e+001
9.875872e+002,2.984346e+001
9.895156e+002,3.388528e+001
9.914441e+002,3.399678e+001
9.933726e+002,3.274135e+001
9.953010e+002,2.992314e+001
9.972295e+002,2.620267e+001
9.991580e+002,2.401220e+001
1.001086e+003,2.381317e+001
1.003015e+003,2.411405e+001
1.004943e+003,2.556879e+001
1.006872e+003,2.685980e+001
1.008800e+003,2.529221e+001
1.010729e+003,1.849778e+001
1.012657e+003,1.446308e+001
1.014586e+003,1.689335e+001
1.016514e+003,2.115032e+001
1.018443e+003,2.192799e+001
1.020371e+003,1.683846e+001
1.022300e+003,1.412780e+001
1.024228e+003,1.530172e+001
1.026156e+003,1.788884e+001
1.028085e+003,2.053599e+001
1.030013e+003,2.322105e+001
1.031942e+003,2.545741e+001
1.033870e+003,2.675265e+001
1.035799e+003,2.813366e+001
1.037727e+003,3.078494e+001
1.039656e+003,3.442458e+001
1.041584e+003,3.550127e+001
1.043513e+003,3.037705e+001
1.045441e+003,2.693578e+001
1.047370e+003,2.828234e+001
1.049298e+003,3.228488e+001
1.051227e+003,3.402555e+001
1.053155e+003,3.329370e+001
1.055083e+003,3.134100e+001
1.057012e+003,2.597961e+001
1.058940e+003,2.106686e+001
1.060869e+003,2.065831e+001
1.062797e+003,2.550438e+001
1.064726e+003,3.016646e+001
1.066654e+003,3.325808e+001
1.068583e+003,3.628233e+001
1.070511e+003,4.007498e+001
1.072440e+003,4.468748e+001
1.074368e+003,4.928112e+001
1.076297e+003,5.294176e+001
1.078225e+003,5.757919e+001
1.080154e+003,6.440834e+001
1.082082e+003,7.278706e+001
1.084010e+003,8.101876e+001
1.085939e+003,9.000164e+001
1.087867e+003,9.674307e+001
1.089796e+003,1.011031e+002
1.091724e+003,1.021724e+002
1.093653e+003,9.775660e+001
1.095581e+003,8.563749e+001
1.097510e+003,7.500121e+001
1.099438e+003,6.802186e+001
1.101367e+003,6.176638e+001
1.103295e+003,5.383975e+001
1.105224e+003,4.398407e+001
1.107152e+003,3.689664e+001
1.109081e+003,3.332039e+001
1.111009e+003,3.152074e+001
1.112938e+003,3.147182e+001
1.114866e+003,3.274256e+001
1.116794e+003,3.418504e+001
1.118723e+003,3.541807e+001
1.120651e+003,3.780591e+001
1.122580e+003,4.367797e+001
1.124508e+003,4.980220e+001
1.126437e+003,5.276432e+001
1.128365e+003,5.176733e+001
1.130294e+003,4.999620e+001
1.132222e+003,4.718023e+001
1.134151e+003,4.416000e+001
1.136079e+003,4.144466e+001
1.138008e+003,3.900053e+001
1.139936e+003,3.606936e+001
1.141865e+003,3.057632e+001
1.143793e+003,2.766507e+001
1.145721e+003,3.010442e+001
1.147650e+003,3.587724e+001
1.149578e+003,4.187790e+001
1.151507e+003,4.805189e+001
1.153435e+003,5.451882e+001
1.155364e+003,6.424555e+001
1.157292e+003,7.177136e+001
1.159221e+003,7.295161e+001
1.161149e+003,6.696482e+001
1.163078e+003,6.109521e+001
1.165006e+003,5.624663e+001
1.166935e+003,5.049384e+001
1.168863e+003,4.249525e+001
1.170792e+003,3.317434e+001
1.172720e+003,2.468259e+001
1.174648e+003,1.556738e+001
1.176577e+003,1.067995e+001
1.178505e+003,1.392797e+001
1.180434e+003,1.979369e+001
1.182362e+003,2.429640e+001
1.184291e+003,2.743914e+001
1.186219e+003,2.813588e+001
1.188148e+003,2.279144e+001
1.190076e+003,1.984374e+001
1.192005e+003,2.461538e+001
1.193933e+003,3.445598e+001
1.195862e+003,4.053844e+001
1.197790e+003,4.131931e+001
1.199719e+003,4.057200e+001
1.201647e+003,3.768613e+001
1.203575e+003,3.410501e+001
1.205504e+003,3.090491e+001
1.207432e+003,2.805003e+001
1.209361e+003,2.624273e+001
1.211289e+003,2.679819e+001
1.213218e+003,2.685660e+001
1.215146e+003,2.407152e+001
1.217075e+003,2.025015e+001
1.219003e+003,1.943382e+001
1.220932e+003,2.290239e+001
1.222860e+003,2.494520e+001
1.224789e+003,2.257483e+001
1.226717e+003,1.934383e+001
1.228646e+003,1.763982e+001
1.230574e+003,1.754986e+001
1.232502e+003,1.808500e+001
1.234431e+003,1.952898e+001
1.236359e+003,2.124714e+001
1.238288e+003,2.358352e+001
1.240216e+003,2.596303e+001
1.242145e+003,2.698051e+001
1.244073e+003,2.549444e+001
1.246002e+003,2.560111e+001
1.247930e+003,2.851032e+001
1.249859e+003,3.232515e+001
1.251787e+003,3.686077e+001
1.253716e+003,4.152521e+001
1.255644e+003,4.327480e+001
1.257573e+003,4.092039e+001
1.259501e+003,3.784556e+001
1.261429e+003,3.427040e+001
1.263358e+003,3.115693e+001
1.265286e+003,2.923161e+001
1.267215e+003,2.821157e+001
1.269143e+003,3.029765e+001
1.271072e+003,4.049786e+001
1.273000e+003,4.879483e+001
1.274929e+003,5.040158e+001
1.276857e+003,4.709702e+001
1.278786e+003,4.485854e+001
1.280714e+003,4.412978e+001
1.282643e+003,4.388227e+001
1.284571e+003,4.401421e+001
1.286500e+003,4.469588e+001
1.288428e+003,4.628966e+001
1.290356e+003,4.872967e+001
1.292285e+003,5.081855e+001
1.294213e+003,5.193806e+001
1.296142e+003,5.379405e+001
1.298070e+003,5.768332e+001
1.299999e+003,6.222738e+001
1.301927e+003,6.630425e+001
1.303856e+003,6.997894e+001
1.305784e+003,7.140113e+001
1.307713e+003,6.798843e+001
1.309641e+003,6.538148e+001
1.311570e+003,6.629149e+001
1.313498e+003,6.971783e+001
1.315427e+003,7.283752e+001
1.317355e+003,7.451392e+001
1.319283e+003,7.851755e+001
1.321212e+003,8.900742e+001
1.323140e+003,9.817851e+001
1.325069e+003,1.012484e+002
1.326997e+003,9.850398e+001
1.328926e+003,9.302139e+001
1.330854e+003,8.393877e+001
1.332783e+003,7.374065e+001
1.334711e+003,6.000090e+001
1.336640e+003,4.727481e+001
1.338568e+003,4.003898e+001
1.340497e+003,3.798398e+001
1.342425e+003,3.898248e+001
1.344354e+003,4.507783e+001
1.346282e+003,5.012922e+001
1.348210e+003,5.051875e+001
1.350139e+003,4.919396e+001
1.352068e+003,5.061010e+001
1.353996e+003,5.519852e+001
1.355924e+003,5.509917e+001
1.357853e+003,4.452710e+001
1.359781e+003,3.570993e+001
1.361710e+003,3.543032e+001
1.363638e+003,3.952370e+001
1.365567e+003,3.920270e+001
1.367495e+003,3.166835e+001
1.369424e+003,2.746391e+001
1.371352e+003,2.978766e+001
1.373281e+003,3.256874e+001
1.375209e+003,3.271451e+001
1.377138e+003,3.112044e+001
1.379066e+003,3.086429e+001
1.380995e+003,3.397503e+001
1.382923e+003,3.436048e+001
1.384851e+003,2.746700e+001
1.386780e+003,2.164175e+001
1.388708e+003,2.264702e+001
1.390637e+003,2.928156e+001
1.392565e+003,3.597307e+001
1.394494e+003,4.261065e+001
1.396422e+003,4.956036e+001
1.398351e+003,5.568455e+001
1.400279e+003,6.326610e+001
1.402208e+003,7.556276e+001
1.404136e+003,9.075074e+001
1.406065e+003,1.023519e+002
1.407993e+003,1.097646e+002
1.409922e+003,1.142265e+002
1.411850e+003,1.159801e+002
1.413778e+003,1.149346e+002
1.415707e+003,1.101758e+002
1.417635e+003,1.021258e+002
1.419564e+003,9.496404e+001
1.421492e+003,8.955173e+001
1.423421e+003,8.350881e+001
1.425349e+003,7.450847e+001
1.427278e+003,6.617749e+001
1.429206e+003,6.141190e+001
1.431135e+003,6.017434e+001
1.433063e+003,6.035251e+001
1.434992e+003,6.088347e+001
1.436920e+003,6.435498e+001
1.438849e+003,7.508758e+001
1.440777e+003,8.560471e+001
1.442705e+003,9.020978e+001
1.444634e+003,8.895326e+001
1.446562e+003,8.354810e+001
1.448491e+003,7.084242e+001
1.450419e+003,5.979585e+001
1.452348e+003,5.175361e+001
1.454276e+003,4.610745e+001
1.456205e+003,4.380515e+001
1.458133e+003,4.396241e+001
1.460062e+003,4.098030e+001
1.461990e+003,3.272025e+001
1.463919e+003,2.680279e+001
1.465847e+003,2.655024e+001
1.467776e+003,2.836176e+001
1.469704e+003,3.021484e+001
1.471632e+003,3.199857e+001
1.473561e+003,3.317820e+001
1.475489e+003,3.344323e+001
1.477418e+003,3.410469e+001
1.479346e+003,3.535564e+001
1.481275e+003,3.730360e+001
1.483203e+003,4.081564e+001
1.485132e+003,4.509841e+001
1.487060e+003,4.699856e+001
1.488989e+003,4.579518e+001
1.490917e+003,4.438393e+001
1.492846e+003,4.352973e+001
1.494774e+003,4.242029e+001
1.496703e+003,4.084788e+001
1.498631e+003,3.872770e+001
1.500559e+003,3.549432e+001
1.502488e+003,2.997619e+001
1.504416e+003,2.670045e+001
1.506345e+003,2.718897e+001
1.508273e+003,2.851413e+001
1.510202e+003,2.978295e+001
1.512130e+003,3.102547e+001
1.514059e+003,3.262885e+001
1.515987e+003,3.576899e+001
1.517916e+003,3.560875e+001
1.519844e+003,2.786981e+001
1.521773e+003,2.253937e+001
1.523701e+003,2.476600e+001
1.525630e+003,2.987926e+001
1.527558e+003,3.120662e+001
1.529486e+003,2.798041e+001
1.531415e+003,2.804586e+001
1.533343e+003,3.430246e+001
1.535272e+003,3.975200e+001
1.537200e+003,4.318822e+001
1.539129e+003,4.507779e+001
1.541057e+003,4.596952e+001
1.542986e+003,4.574508e+001
1.544914e+003,4.336411e+001
1.546843e+003,3.716367e+001
1.548771e+003,3.316978e+001
1.550700e+003,3.418131e+001
1.552628e+003,3.620432e+001
1.554557e+003,3.611730e+001
1.556485e+003,3.522889e+001
1.558413e+003,3.761577e+001
1.560342e+003,4.421759e+001
1.562270e+003,4.773867e+001
1.564199e+003,4.471498e+001
1.566127e+003,4.152003e+001
1.568056e+003,4.177290e+001
1.569984e+003,4.333696e+001
1.571913e+003,4.267333e+001
1.573841e+003,3.997805e+001
1.575770e+003,4.046646e+001
1.577698e+003,4.632269e+001
1.579627e+003,5.161718e+001
1.581555e+003,5.386622e+001
1.583484e+003,5.499311e+001
1.585412e+003,5.563176e+001
1.587340e+003,5.638166e+001
1.589269e+003,6.012566e+001
1.591197e+003,6.780421e+001
1.593126e+003,7.522649e+001
1.595054e+003,8.252204e+001
1.596983e+003,8.786643e+001
1.598911e+003,9.050939e+001
1.600840e+003,9.052309e+001
1.602768e+003,8.726295e+001
1.604697e+003,8.037072e+001
1.606625e+003,7.482704e+001
1.608554e+003,7.088518e+001
1.610482e+003,6.895146e+001
1.612411e+003,7.121542e+001
1.614339e+003,7.386021e+001
1.616267e+003,7.291550e+001
1.618196e+003,6.898657e+001
1.620124e+003,6.740505e+001
1.622053e+003,6.939841e+001
1.623981e+003,7.046634e+001
1.625910e+003,6.914308e+001
1.627838e+003,6.729000e+001
1.629767e+003,6.528404e+001
1.631695e+003,6.346135e+001
1.633624e+003,6.248626e+001
1.635552e+003,6.238818e+001
1.637481e+003,6.300681e+001
1.639409e+003,6.586245e+001
1.641338e+003,6.687628e+001
1.643266e+003,6.531245e+001
1.645194e+003,6.145216e+001
1.647123e+003,5.376840e+001
1.649051e+003,4.348192e+001
1.650980e+003,3.793703e+001
1.652908e+003,3.873084e+001
1.654837e+003,3.955133e+001
1.656765e+003,4.023162e+001
1.658694e+003,4.017295e+001
1.660622e+003,3.863997e+001
1.662551e+003,3.660601e+001
1.664479e+003,3.508565e+001
1.666408e+003,3.405943e+001
1.668336e+003,3.431757e+001
1.670265e+003,3.663528e+001
1.672193e+003,3.874662e+001
1.674121e+003,3.980851e+001
1.676050e+003,4.117003e+001
1.677978e+003,4.415181e+001
1.679907e+003,4.772703e+001
1.681835e+003,4.996328e+001
1.683764e+003,5.098331e+001
1.685692e+003,4.971613e+001
1.687621e+003,4.417219e+001
1.689549e+003,3.939653e+001
1.691478e+003,3.572971e+001
1.693406e+003,3.385278e+001
1.695335e+003,3.594719e+001
1.697263e+003,4.018710e+001
1.699192e+003,4.011410e+001
1.701120e+003,3.425963e+001
1.703048e+003,2.946674e+001
1.704977e+003,2.634975e+001
1.706905e+003,2.394214e+001
1.708834e+003,2.117606e+001
1.710762e+003,1.970657e+001
1.712691e+003,2.179613e+001
1.714619e+003,2.662418e+001
1.716548e+003,2.989327e+001
1.718476e+003,3.151363e+001
1.720405e+003,3.193400e+001
1.722333e+003,3.076949e+001
1.724262e+003,2.898734e+001
1.726190e+003,2.538889e+001
1.728119e+003,2.249073e+001
1.730047e+003,2.343582e+001
1.731975e+003,2.758771e+001
1.733904e+003,3.008308e+001
1.735832e+003,3.063002e+001
1.737761e+003,3.049449e+001
1.739689e+003,2.914488e+001
1.741618e+003,2.809688e+001
1.743546e+003,2.841549e+001
1.745475e+003,2.881059e+001
1.747403e+003,2.717872e+001
1.749332e+003,2.412559e+001
1.751260e+003,2.470362e+001
1.753189e+003,2.999723e+001
1.755117e+003,3.440238e+001
1.757046e+003,3.795108e+001
1.758974e+003,3.923202e+001
1.760902e+003,3.646326e+001
1.762831e+003,3.239467e+001
1.764759e+003,2.901867e+001
1.766688e+003,2.639940e+001
1.768616e+003,2.500181e+001
1.770545e+003,2.506923e+001
1.772473e+003,2.478515e+001
1.774402e+003,2.324182e+001
1.776330e+003,2.245958e+001
1.778259e+003,2.423619e+001
1.780187e+003,2.615827e+001
1.782116e+003,2.628398e+001
1.784044e+003,2.506078e+001
1.785973e+003,2.326928e+001
1.787901e+003,2.079539e+001
1.789829e+003,2.035411e+001
1.791758e+003,2.319261e+001
1.793686e+003,2.597870e+001
1.795615e+003,2.755663e+001
1.797543e+003,2.870564e+001
1.799472e+003,2.985117e+001
1.801400e+003,3.100949e+001
1.803329e+003,3.308094e+001
1.805257e+003,3.592500e+001
1.807186e+003,3.412753e+001
1.809114e+003,2.470604e+001
1.811043e+003,1.800068e+001
1.812971e+003,1.839869e+001
1.814900e+003,2.045891e+001
1.816828e+003,2.176246e+001
1.818756e+003,2.258455e+001
1.820685e+003,2.318969e+001
1.822613e+003,2.362293e+001
1.824542e+003,2.430389e+001
1.826470e+003,2.543458e+001
1.828399e+003,2.612080e+001
1.830327e+003,2.571952e+001
1.832256e+003,2.551236e+001
1.834184e+003,2.663232e+001
1.836113e+003,2.758860e+001
1.838041e+003,2.609318e+001
1.839970e+003,2.324086e+001
1.841898e+003,2.329357e+001
1.843827e+003,2.741804e+001
1.845755e+003,3.021318e+001
1.847684e+003,3.171840e+001
1.849612e+003,3.183525e+001
1.851541e+003,2.927875e+001
1.853469e+003,2.664397e+001
1.855397e+003,2.551541e+001
1.857326e+003,2.533759e+001
1.859254e+003,2.520488e+001
1.861183e+003,2.511356e+001
1.863111e+003,2.546458e+001
1.865040e+003,2.673971e+001
1.866968e+003,2.741422e+001
1.868897e+003,2.755076e+001
1.870825e+003,2.687741e+001
1.872754e+003,2.366508e+001
1.874682e+003,2.114985e+001
1.876611e+003,2.351196e+001
1.878539e+003,2.848346e+001
1.880468e+003,2.901084e+001
1.882396e+003,2.478843e+001
1.884324e+003,2.121194e+001
1.886253e+003,1.807322e+001
1.888181e+003,1.729906e+001
1.890110e+003,2.105138e+001
1.892038e+003,2.482764e+001
1.893967e+003,2.592766e+001
1.895895e+003,2.625193e+001
1.897824e+003,2.843730e+001
1.899752e+003,3.140547e+001
1.901681e+003,3.106973e+001
1.903609e+003,2.707906e+001
1.905538e+003,2.508433e+001
1.907466e+003,2.675155e+001
1.909395e+003,2.792143e+001
1.911323e+003,2.653427e+001
1.913251e+003,2.525850e+001
1.915180e+003,2.523159e+001
1.917108e+003,2.634569e+001
1.919037e+003,2.922348e+001
1.920965e+003,3.333078e+001
1.922894e+003,3.545319e+001
1.924822e+003,3.531147e+001
1.926751e+003,3.432716e+001
1.928679e+003,3.171713e+001
1.930608e+003,2.953077e+001
1.932536e+003,2.846466e+001
1.934465e+003,2.754218e+001
1.936393e+003,2.582032e+001
1.938322e+003,2.417331e+001
1.940250e+003,2.380737e+001
1.942178e+003,2.461922e+001
1.944107e+003,2.593449e+001
1.946035e+003,2.786244e+001
1.947964e+003,2.997118e+001
1.949892e+003,3.359233e+001
1.951821e+003,3.465635e+001
1.953749e+003,2.989478e+001
1.955678e+003,2.531813e+001
1.957606e+003,2.303503e+001
1.959535e+003,2.299800e+001
1.961463e+003,2.705744e+001
1.963392e+003,3.311799e+001
1.965320e+003,3.370383e+001
1.967249e+003,2.855328e+001
1.969177e+003,2.528026e+001
1.971105e+003,2.511313e+001
1.973034e+003,2.544875e+001
1.974962e+003,2.566349e+001
1.976891e+003,2.620276e+001
1.978819e+003,2.765924e+001
1.980748e+003,2.918753e+001
1.982676e+003,3.058089e+001
1.984605e+003,3.127157e+001
1.986533e+003,2.938683e+001
1.988462e+003,2.469615e+001
1.990390e+003,2.144440e+001
1.992319e+003,1.854977e+001
1.994247e+003,1.905025e+001
1.996176e+003,2.639079e+001
1.998104e+003,3.227752e+001
2.000032e+003,3.424273e+001
2.001961e+003,3.446679e+001
2.003889e+003,3.395012e+001
2.005818e+003,3.276315e+001
2.007746e+003,3.022839e+001
2.009675e+003,2.691183e+001
2.011603e+003,2.695126e+001
2.013532e+003,3.076744e+001
2.015460e+003,3.277308e+001
2.017389e+003,3.228276e+001
2.019317e+003,3.028972e+001
2.021246e+003,2.489866e+001
2.023174e+003,2.160866e+001
2.025103e+003,2.485365e+001
2.027031e+003,2.960529e+001
2.028959e+003,3.233591e+001
2.030888e+003,3.321444e+001
2.032816e+003,3.154942e+001
2.034745e+003,2.764599e+001
2.036673e+003,2.724583e+001
2.038602e+003,3.269510e+001
2.040530e+003,3.475335e+001
2.042459e+003,3.035832e+001
2.044387e+003,2.702331e+001
2.046316e+003,2.609292e+001
2.048244e+003,2.624425e+001
2.050173e+003,2.839368e+001
2.052101e+003,2.995381e+001
2.054030e+003,2.701203e+001
2.055958e+003,2.214783e+001
2.057886e+003,2.149018e+001
2.059815e+003,2.474001e+001
2.061743e+003,2.950262e+001
2.063672e+003,3.626345e+001
2.065600e+003,3.913006e+001
2.067529e+003,3.609371e+001
2.069457e+003,3.229913e+001
2.071386e+003,2.721730e+001
2.073314e+003,2.464258e+001
2.075243e+003,2.891795e+001
2.077171e+003,3.412097e+001
2.079100e+003,3.410149e+001
2.081028e+003,3.159115e+001
2.082957e+003,3.257696e+001
2.084885e+003,3.659757e+001
2.086813e+003,3.717120e+001
2.088742e+003,3.228794e+001
2.090670e+003,3.016569e+001
2.092599e+003,3.364007e+001
2.094527e+003,3.408242e+001
2.096456e+003,2.666059e+001
2.098384e+003,2.137135e+001
2.100313e+003,2.242033e+001
2.102241e+003,2.605706e+001
2.104170e+003,3.274901e+001
2.106098e+003,3.851756e+001
2.108027e+003,3.656547e+001
2.109955e+003,2.972614e+001
2.111884e+003,2.651918e+001
2.113812e+003,2.704504e+001
2.115740e+003,2.845567e+001
2.117669e+003,3.136804e+001
2.119597e+003,3.270756e+001
2.121526e+003,3.037626e+001
2.123454e+003,2.913487e+001
2.125383e+003,3.148714e+001
2.127311e+003,3.321278e+001
2.129240e+003,3.134395e+001
2.131168e+003,2.884392e+001
2.133097e+003,2.889205e+001
2.135025e+003,2.985459e+001
2.136954e+003,2.813815e+001
2.138882e+003,2.459201e+001
2.140811e+003,2.338926e+001
2.142739e+003,2.461032e+001
2.144667e+003,2.761907e+001
2.146596e+003,3.343098e+001
2.148524e+003,3.583469e+001
2.150453e+003,3.233131e+001
2.152381e+003,2.782506e+001
2.154310e+003,2.067839e+001
2.156238e+003,1.691240e+001
2.158167e+003,2.279278e+001
2.160095e+003,3.019601e+001
2.162024e+003,3.164835e+001
2.163952e+003,2.972966e+001
2.165881e+003,2.830125e+001
2.167809e+003,2.745301e+001
2.169738e+003,2.798226e+001
2.171666e+003,2.991561e+001
2.173594e+003,3.154242e+001
2.175523e+003,3.310631e+001
2.177451e+003,3.194744e+001
2.179380e+003,2.643628e+001
2.181308e+003,2.159763e+001
2.183237e+003,1.736172e+001
2.185165e+003,1.639898e+001
2.187094e+003,2.335177e+001
2.189022e+003,3.005073e+001
2.190951e+003,2.869055e+001
2.192879e+003,2.522950e+001
2.194808e+003,2.818407e+001
2.196736e+003,3.494564e+001
2.198665e+003,3.867636e+001
2.200593e+003,3.936814e+001
2.202521e+003,3.691986e+001
2.204450e+003,3.089184e+001
2.206378e+003,2.712179e+001
2.208307e+003,2.612532e+001
2.210235e+003,2.761857e+001
2.212164e+003,3.373843e+001
2.214092e+003,3.720454e+001
2.216021e+003,3.351223e+001
2.217949e+003,2.941559e+001
2.219878e+003,2.793470e+001
2.221806e+003,2.732377e+001
2.223735e+003,2.584493e+001
2.225663e+003,2.470615e+001
2.227592e+003,2.608250e+001
2.229520e+003,2.892611e+001
2.231448e+003,3.039357e+001
2.233377e+003,3.059439e+001
2.235305e+003,3.051188e+001
2.237234e+003,3.017727e+001
2.239162e+003,2.924992e+001
2.241091e+003,2.736744e+001
2.243019e+003,2.690446e+001
2.244948e+003,2.885363e+001
2.246876e+003,3.092857e+001
2.248805e+003,3.289193e+001
2.250733e+003,3.431366e+001
2.252662e+003,3.496387e+001
2.254590e+003,3.505888e+001
2.256519e+003,3.546969e+001
2.258447e+003,3.470670e+001
2.260375e+003,2.992693e+001
2.262304e+003,2.382640e+001
2.264232e+003,2.035274e+001
2.266161e+003,1.950388e+001
2.268089e+003,2.235199e+001
2.270018e+003,2.827618e+001
2.271946e+003,3.204869e+001
2.273875e+003,3.333260e+001
2.275803e+003,3.303144e+001
2.277732e+003,2.927143e+001
2.279660e+003,2.846927e+001
2.281589e+003,3.446120e+001
2.283517e+003,3.808436e+001
2.285446e+003,3.612230e+001
2.287374e+003,3.411502e+001
2.289302e+003,3.400996e+001
2.291231e+003,3.411259e+001
2.293159e+003,3.417500e+001
2.295088e+003,3.334088e+001
2.297016e+003,2.884082e+001
2.298945e+003,2.453642e+001
2.300873e+003,2.684919e+001
2.302802e+003,3.308369e+001
2.304730e+003,3.752445e+001
2.306659e+003,3.990545e+001
2.308587e+003,3.713693e+001
2.310516e+003,2.800981e+001
2.312444e+003,2.416344e+001
2.314373e+003,2.636876e+001
2.316301e+003,2.988748e+001
2.318229e+003,3.565243e+001
2.320158e+003,3.662960e+001
2.322086e+003,2.837814e+001
2.324015e+003,2.325347e+001
2.325943e+003,2.770156e+001
2.327872e+003,3.227055e+001
2.329800e+003,3.255608e+001
2.331729e+003,3.305276e+001
2.333657e+003,3.850881e+001
2.335586e+003,4.298880e+001
2.337514e+003,3.959215e+001
2.339443e+003,3.373841e+001
2.341371e+003,3.243168e+001
2.343300e+003,3.355458e+001
2.345228e+003,3.293670e+001
2.347156e+003,3.124600e+001
2.349085e+003,3.051211e+001
2.351013e+003,3.075224e+001
2.352942e+003,3.170777e+001
2.354870e+003,3.346239e+001
2.356799e+003,3.555046e+001
2.358727e+003,3.866182e+001
2.360656e+003,4.011141e+001
2.362584e+003,3.940254e+001
2.364513e+003,3.820494e+001
2.366441e+003,3.661459e+001
2.368370e+003,3.485169e+001
2.370298e+003,3.223457e+001
2.372227e+003,3.088201e+001
2.374155e+003,3.214542e+001
2.376083e+003,3.423080e+001
2.378012e+003,3.736108e+001
2.379940e+003,3.964589e+001
2.381869e+003,3.802030e+001
2.383797e+003,3.656826e+001
2.385726e+003,4.047974e+001
2.387654e+003,4.630167e+001
2.389583e+003,4.912801e+001
2.391511e+003,5.020859e+001
2.393440e+003,5.324623e+001
2.395368e+003,5.654760e+001
2.397297e+003,5.179207e+001
2.399225e+003,4.016969e+001
2.401154e+003,3.888301e+001
2.403082e+003,4.949525e+001
2.405010e+003,5.828920e+001
2.406939e+003,6.522581e+001
2.408867e+003,7.037071e+001
2.410796e+003,7.348946e+001
2.412724e+003,7.550021e+001
2.414653e+003,7.475253e+001
2.416581e+003,7.952262e+001
2.418510e+003,9.502280e+001
2.420438e+003,1.099110e+002
2.422367e+003,1.219081e+002
2.424295e+003,1.314200e+002
2.426224e+003,1.384421e+002
2.428152e+003,1.430242e+002
2.430081e+003,1.468176e+002
2.432009e+003,1.462505e+002
2.433938e+003,1.362518e+002
2.435866e+003,1.248581e+002
2.437794e+003,1.203640e+002
2.439723e+003,1.160287e+002
2.441651e+003,1.014812e+002
2.443580e+003,8.441106e+001
2.445508e+003,7.718724e+001
2.447437e+003,7.632116e+001
2.449365e+003,7.509784e+001
2.451294e+003,7.320475e+001
2.453222e+003,6.841770e+001
2.455151e+003,6.187288e+001
2.457079e+003,5.929599e+001
2.459008e+003,6.044041e+001
2.460936e+003,6.048724e+001
2.462865e+003,5.910394e+001
2.464793e+003,5.823174e+001
2.466721e+003,5.824273e+001
2.468650e+003,5.744557e+001
2.470578e+003,5.555971e+001
2.472507e+003,5.350891e+001
2.474435e+003,5.053707e+001
2.476364e+003,5.160744e+001
2.478292e+003,6.043972e+001
2.480221e+003,6.507995e+001
2.482149e+003,5.931054e+001
2.484078e+003,5.424878e+001
2.486006e+003,5.244091e+001
2.487935e+003,5.169254e+001
2.489863e+003,5.116079e+001
2.491792e+003,5.189257e+001
2.493720e+003,5.587035e+001
2.495648e+003,5.872683e+001
2.497577e+003,5.738744e+001
2.499505e+003,5.498803e+001
2.501434e+003,5.277416e+001
2.503362e+003,5.134912e+001
2.505291e+003,5.150422e+001
2.507219e+003,5.243277e+001
2.509148e+003,5.389896e+001
2.511076e+003,5.514627e+001
2.513005e+003,5.554133e+001
2.514933e+003,5.485861e+001
2.516862e+003,5.117973e+001
2.518790e+003,4.718723e+001
2.520719e+003,4.886279e+001
2.522647e+003,5.389453e+001
2.524575e+003,5.647695e+001
2.526504e+003,5.692844e+001
2.528432e+003,5.636028e+001
2.530361e+003,5.485570e+001
2.532289e+003,5.215451e+001
2.534218e+003,4.880555e+001
2.536146e+003,4.870238e+001
2.538075e+003,5.190328e+001
2.540003e+003,5.492432e+001
2.541932e+003,5.828602e+001
2.543860e+003,5.565144e+001
2.545789e+003,4.538138e+001
2.547717e+003,4.058865e+001
2.549646e+003,4.229480e+001
2.551574e+003,4.189043e+001
2.553502e+003,3.767632e+001
2.555431e+003,3.814229e+001
2.557359e+003,4.795778e+001
2.559288e+003,5.219341e+001
2.561216e+003,4.571848e+001
2.563145e+003,4.070166e+001
2.565073e+003,3.763886e+001
2.567002e+003,3.662120e+001
2.568930e+003,3.816661e+001
2.570859e+003,4.033404e+001
2.572787e+003,4.359355e+001
2.574716e+003,4.531647e+001
2.576644e+003,4.276799e+001
2.578573e+003,4.183898e+001
2.580501e+003,4.670648e+001
2.582429e+003,4.892660e+001
2.584358e+003,4.303406e+001
2.586287e+003,4.057792e+001
2.588215e+003,4.978476e+001
2.590144e+003,5.675329e+001
2.592072e+003,5.387740e+001
2.594000e+003,4.896462e+001
2.595929e+003,4.260484e+001
2.597857e+003,3.961430e+001
2.599786e+003,4.563602e+001
2.601714e+003,5.171080e+001
2.603643e+003,5.315450e+001
2.605571e+003,5.281493e+001
2.607500e+003,5.273338e+001
2.609428e+003,5.138520e+001
2.611357e+003,4.482399e+001
2.613285e+003,3.990204e+001
2.615214e+003,4.451365e+001
2.617142e+003,5.074287e+001
2.619071e+003,5.203820e+001
2.620999e+003,5.141174e+001
2.622927e+003,5.066797e+001
2.624856e+003,5.014088e+001
2.626784e+003,5.081832e+001
2.628713e+003,5.124653e+001
2.630641e+003,4.889362e+001
2.632570e+003,4.618914e+001
2.634498e+003,4.636518e+001
2.636427e+003,4.769435e+001
2.638355e+003,4.798062e+001
2.640284e+003,4.817420e+001
2.642212e+003,5.084890e+001
2.644141e+003,5.311074e+001
2.646069e+003,4.880762e+001
2.647998e+003,4.254950e+001
2.649926e+003,4.136027e+001
2.651854e+003,4.381242e+001
2.653783e+003,5.027364e+001
2.655711e+003,5.673149e+001
2.657640e+003,5.551162e+001
2.659568e+003,5.061837e+001
2.661497e+003,4.887264e+001
2.663425e+003,4.938055e+001
2.665354e+003,5.098120e+001
2.667282e+003,5.307960e+001
2.669211e+003,5.449689e+001
2.671139e+003,5.538037e+001
2.673068e+003,5.602688e+001
2.674996e+003,5.636583e+001
2.676925e+003,5.637847e+001
2.678853e+003,5.592136e+001
2.680781e+003,5.338572e+001
2.682710e+003,5.073618e+001
2.684638e+003,5.524633e+001
2.686567e+003,6.194948e+001
2.688495e+003,5.822894e+001
2.690424e+003,4.944557e+001
2.692352e+003,4.787331e+001
2.694281e+003,5.175318e+001
2.696209e+003,5.881847e+001
2.698138e+003,6.671426e+001
2.700066e+003,6.902295e+001
2.701995e+003,6.744302e+001
2.703923e+003,6.456628e+001
2.705852e+003,6.159126e+001
2.707780e+003,6.282757e+001
2.709708e+003,6.560300e+001
2.711637e+003,6.152722e+001
2.713565e+003,5.455780e+001
2.715494e+003,5.461822e+001
2.717422e+003,5.866095e+001
2.719351e+003,6.216919e+001
2.721279e+003,6.394272e+001
2.723208e+003,5.942284e+001
2.725136e+003,5.233117e+001
2.727065e+003,5.057412e+001
2.728993e+003,5.232061e+001
2.730922e+003,5.511450e+001
2.732850e+003,5.797775e+001
2.734779e+003,5.947540e+001
2.736707e+003,5.962555e+001
2.738635e+003,5.757379e+001
2.740564e+003,5.490111e+001
2.742492e+003,5.335678e+001
2.744421e+003,5.402089e+001
2.746349e+003,6.214397e+001
2.748278e+003,7.016738e+001
2.750206e+003,6.381451e+001
2.752135e+003,5.315741e+001
2.754063e+003,5.263754e+001
2.755992e+003,5.699084e+001
2.757920e+003,6.122586e+001
2.759849e+003,6.421539e+001
2.761777e+003,6.392147e+001
2.763706e+003,6.260344e+001
2.765634e+003,6.281195e+001
2.767563e+003,6.340629e+001
2.769491e+003,6.313282e+001
2.771419e+003,6.262439e+001
2.773348e+003,6.184160e+001
2.775276e+003,6.180847e+001
2.777205e+003,6.495741e+001
2.779133e+003,6.735899e+001
2.781062e+003,6.405508e+001
2.782990e+003,6.056747e+001
2.784919e+003,6.114480e+001
2.786847e+003,6.315702e+001
2.788776e+003,6.772237e+001
2.790704e+003,6.933881e+001
2.792633e+003,6.058508e+001
2.794561e+003,5.358509e+001
2.796490e+003,5.528226e+001
2.798418e+003,6.080691e+001
2.800346e+003,7.158276e+001
2.802275e+003,7.912495e+001
2.804203e+003,7.557901e+001
2.806132e+003,7.380190e+001
2.808060e+003,8.224827e+001
2.809989e+003,8.776432e+001
2.811917e+003,8.457655e+001
2.813846e+003,8.242123e+001
2.815774e+003,8.579055e+001
2.817703e+003,8.663714e+001
2.819631e+003,8.045196e+001
2.821560e+003,7.503293e+001
2.823488e+003,7.022415e+001
2.825417e+003,7.026998e+001
2.827345e+003,7.742992e+001
2.829273e+003,8.259347e+001
2.831202e+003,8.368649e+001
2.833130e+003,8.365443e+001
2.835059e+003,8.114529e+001
2.836987e+003,8.228025e+001
2.838916e+003,8.781724e+001
2.840844e+003,9.297871e+001
2.842773e+003,9.755991e+001
2.844701e+003,9.752297e+001
2.846630e+003,9.143330e+001
2.848558e+003,8.880259e+001
2.850487e+003,8.982764e+001
2.852415e+003,9.035741e+001
2.854344e+003,9.029429e+001
2.856272e+003,8.877939e+001
2.858200e+003,8.619970e+001
2.860129e+003,8.586119e+001
2.862057e+003,8.751794e+001
2.863986e+003,8.971988e+001
2.865914e+003,9.274162e+001
2.867843e+003,9.790099e+001
2.869771e+003,1.043586e+002
2.871700e+003,1.118504e+002
2.873628e+003,1.180753e+002
2.875557e+003,1.158514e+002
2.877485e+003,1.117397e+002
2.879414e+003,1.202710e+002
2.881342e+003,1.282634e+002
2.883271e+003,1.166522e+002
2.885199e+003,1.020062e+002
2.887127e+003,1.013053e+002
2.889056e+003,1.047796e+002
2.890984e+003,1.078371e+002
2.892913e+003,1.074837e+002
2.894841e+003,9.724154e+001
2.896770e+003,8.971361e+001
2.898698e+003,9.202755e+001
2.900627e+003,9.837413e+001
2.902555e+003,1.081277e+002
2.904484e+003,1.179692e+002
2.906412e+003,1.263228e+002
2.908341e+003,1.360379e+002
2.910269e+003,1.476765e+002
2.912198e+003,1.599865e+002
2.914126e+003,1.654035e+002
2.916054e+003,1.978886e+002
2.917983e+003,2.632550e+002
2.919911e+003,3.452570e+002
2.921840e+003,4.487958e+002
2.923768e+003,5.447183e+002
2.925697e+003,6.373630e+002
2.927625e+003,6.720480e+002
2.929554e+003,6.504441e+002
2.931482e+003,5.902525e+002
2.933411e+003,5.018952e+002
2.935339e+003,4.456003e+002
2.937268e+003,4.225558e+002
2.939196e+003,4.502950e+002
2.941125e+003,5.099087e+002
2.943053e+003,5.682604e+002
2.944981e+003,6.164921e+002
2.946910e+003,6.364799e+002
2.948838e+003,6.409254e+002
2.950767e+003,6.485178e+002
2.952695e+003,6.461888e+002
2.954624e+003,6.270739e+002
2.956552e+003,5.885164e+002
2.958481e+003,5.208999e+002
2.960409e+003,4.440981e+002
2.962338e+003,3.595741e+002
2.964266e+003,2.836897e+002
2.966195e+003,2.194649e+002
2.968123e+003,1.706047e+002
2.970052e+003,1.407486e+002
2.971980e+003,1.232866e+002
2.973908e+003,1.200660e+002
2.975837e+003,1.159508e+002
2.977765e+003,1.067638e+002
2.979694e+003,1.182171e+002
2.981622e+003,1.603659e+002
2.983551e+003,1.859869e+002
2.985479e+003,1.949438e+002
2.987408e+003,1.872861e+002
2.989336e+003,1.654985e+002
2.991265e+003,1.394982e+002
2.993193e+003,1.129528e+002
2.995122e+003,9.754887e+001
2.997050e+003,8.963580e+001
2.998979e+003,8.218758e+001
3.000907e+003,7.666171e+001
3.002835e+003,7.659521e+001
3.004764e+003,7.716203e+001
3.006692e+003,7.214697e+001
3.008621e+003,6.774651e+001
3.010549e+003,6.890994e+001
3.012478e+003,7.012433e+001
3.014406e+003,6.904266e+001
3.016335e+003,6.667439e+001
3.018263e+003,6.271920e+001
3.020192e+003,5.832761e+001
3.022120e+003,5.252567e+001
3.024049e+003,5.197287e+001
3.025977e+003,6.048301e+001
3.027906e+003,6.279692e+001
3.029834e+003,5.698064e+001
3.031762e+003,5.597146e+001
3.033691e+003,5.941763e+001
3.035619e+003,6.200047e+001
3.037548e+003,6.398181e+001
3.039476e+003,6.868104e+001
3.041405e+003,7.353135e+001
3.043333e+003,6.964959e+001
3.045262e+003,6.375055e+001
3.047190e+003,6.579984e+001
3.049119e+003,6.970828e+001
3.051047e+003,7.018347e+001
3.052976e+003,6.856644e+001
3.054904e+003,6.418639e+001
3.056833e+003,6.101053e+001
3.058761e+003,6.297237e+001
3.060689e+003,6.266138e+001
3.062618e+003,5.503214e+001
3.064546e+003,5.352008e+001
3.066475e+003,6.125396e+001
3.068403e+003,6.478611e+001
3.070332e+003,6.094834e+001
3.072260e+003,6.016337e+001
3.074189e+003,6.242374e+001
3.076117e+003,6.532793e+001
3.078046e+003,6.837052e+001
3.079974e+003,7.065505e+001
3.081903e+003,7.117934e+001
3.083831e+003,6.552990e+001
3.085760e+003,5.890226e+001
3.087688e+003,5.795427e+001
3.089616e+003,5.997958e+001
3.091545e+003,6.664727e+001
3.093473e+003,6.984892e+001
3.095402e+003,6.156054e+001
3.097330e+003,5.418438e+001
3.099259e+003,4.972293e+001
3.101187e+003,5.083361e+001
3.103116e+003,6.517931e+001
3.105044e+003,6.843324e+001
3.106973e+003,5.844663e+001
3.108901e+003,5.570654e+001
3.110830e+003,6.124137e+001
3.112758e+003,6.970353e+001
3.114687e+003,7.892413e+001
3.116615e+003,7.650507e+001
3.118543e+003,6.891504e+001
3.120472e+003,7.045976e+001
3.122400e+003,7.381870e+001
3.124329e+003,6.746424e+001
3.126257e+003,6.317358e+001
3.128186e+003,7.370278e+001
3.130114e+003,8.147468e+001
3.132043e+003,7.452939e+001
3.133971e+003,7.060705e+001
3.135900e+003,7.570208e+001
3.137828e+003,8.028754e+001
3.139757e+003,8.358405e+001
3.141685e+003,8.488749e+001
3.143614e+003,8.393757e+001
3.145542e+003,8.375044e+001
3.147470e+003,8.456139e+001
3.149399e+003,8.661905e+001
3.151327e+003,9.207492e+001
3.153256e+003,1.101140e+002
3.155184e+003,1.283449e+002
3.157113e+003,1.282668e+002
3.159041e+003,1.247760e+002
3.160970e+003,1.261840e+002
3.162898e+003,1.303638e+002
3.164827e+003,1.380127e+002
3.166755e+003,1.453453e+002
3.168684e+003,1.524713e+002
3.170612e+003,1.556017e+002
3.172541e+003,1.535535e+002
3.174469e+003,1.532192e+002
3.176397e+003,1.547719e+002
3.178326e+003,1.560198e+002
3.180254e+003,1.570029e+002
3.182183e+003,1.579251e+002
3.184111e+003,1.586323e+002
3.186040e+003,1.586527e+002
3.187968e+003,1.586762e+002
3.189897e+003,1.601124e+002
3.191825e+003,1.604486e+002
3.193754e+003,1.567819e+002
3.195682e+003,1.547719e+002
3.197611e+003,1.554108e+002
3.199539e+003,1.591246e+002
3.201468e+003,1.670492e+002
3.203396e+003,1.691078e+002
3.205324e+003,1.650043e+002
3.207253e+003,1.622839e+002
3.209181e+003,1.596495e+002
3.211110e+003,1.522529e+002
3.213038e+003,1.434624e+002
3.214967e+003,1.387095e+002
3.216895e+003,1.348022e+002
3.218824e+003,1.278064e+002
3.220752e+003,1.232311e+002
3.222681e+003,1.261576e+002
3.224609e+003,1.275848e+002
3.226538e+003,1.260495e+002
3.228466e+003,1.217726e+002
3.230395e+003,1.143747e+002
3.232323e+003,1.086236e+002
3.234251e+003,1.047497e+002
3.236180e+003,1.057666e+002
3.238108e+003,1.080920e+002
3.240037e+003,1.029543e+002
3.241965e+003,9.655704e+001
3.243894e+003,9.681753e+001
3.245822e+003,9.771029e+001
3.247751e+003,9.508817e+001
3.249679e+003,9.386122e+001
3.251608e+003,9.673525e+001
3.253536e+003,9.921761e+001
3.255465e+003,1.008852e+002
3.257393e+003,1.043082e+002
3.259322e+003,1.089973e+002
3.261250e+003,1.030096e+002
3.263178e+003,9.145308e+001
3.265107e+003,8.963302e+001
3.267035e+003,9.296304e+001
3.268964e+003,9.899604e+001
3.270892e+003,1.032237e+002
3.272821e+003,1.004057e+002
3.274749e+003,9.959536e+001
3.276678e+003,1.054789e+002
3.278606e+003,1.083850e+002
3.280535e+003,1.065119e+002
3.282463e+003,1.045433e+002
3.284392e+003,1.023421e+002
3.286320e+003,9.671280e+001
3.288249e+003,8.993666e+001
3.290177e+003,8.826593e+001
3.292105e+003,8.904459e+001
3.294034e+003,9.015480e+001
3.295962e+003,9.086946e+001
3.297891e+003,9.061005e+001
3.299819e+003,9.018790e+001
3.301748e+003,9.016462e+001
3.303676e+003,8.726524e+001
3.305605e+003,7.903943e+001
3.307533e+003,8.460246e+001
3.309462e+003,1.000669e+002
3.311390e+003,1.000740e+002
3.313319e+003,9.224963e+001
3.315247e+003,8.787236e+001
3.317176e+003,8.573443e+001
3.319104e+003,8.638603e+001
3.321032e+003,8.568549e+001
3.322961e+003,8.023831e+001
3.324889e+003,7.638922e+001
3.326818e+003,7.527905e+001
3.328746e+003,7.287611e+001
3.330675e+003,6.910308e+001
3.332603e+003,6.775504e+001
3.334532e+003,6.800992e+001
3.336460e+003,6.759442e+001
3.338389e+003,6.710557e+001
3.340317e+003,6.845180e+001
3.342246e+003,6.788675e+001
3.344174e+003,6.165796e+001
3.346103e+003,5.723150e+001
3.348031e+003,5.639826e+001
3.349959e+003,5.727901e+001
3.351888e+003,5.986163e+001
3.353816e+003,5.962820e+001
3.355745e+003,5.765493e+001
3.357673e+003,5.597340e+001
3.359602e+003,5.629835e+001
3.361530e+003,6.233198e+001
3.363459e+003,6.939493e+001
3.365387e+003,7.938213e+001
3.367316e+003,7.975677e+001
3.369244e+003,6.200670e+001
3.371173e+003,5.498501e+001
3.373101e+003,6.030258e+001
3.375030e+003,6.704419e+001
3.376958e+003,7.385374e+001
3.378886e+003,7.632246e+001
3.380815e+003,7.844213e+001
3.382743e+003,8.512978e+001
3.384672e+003,9.288496e+001
3.386600e+003,9.827554e+001
3.388529e+003,1.076969e+002
3.390457e+003,1.236292e+002
3.392386e+003,1.365188e+002
3.394314e+003,1.455861e+002
3.396243e+003,1.559790e+002
3.398171e+003,1.646480e+002
3.400100e+003,1.647469e+002
3.402028e+003,1.594147e+002
3.403957e+003,1.497033e+002
3.405885e+003,1.397715e+002
3.407813e+003,1.320993e+002
3.409742e+003,1.223315e+002
3.411670e+003,1.086808e+002
3.413599e+003,1.015500e+002
3.415527e+003,9.926776e+001
3.417456e+003,8.690585e+001
3.419384e+003,7.132170e+001
3.421313e+003,6.723289e+001
3.423241e+003,6.494273e+001
3.425170e+003,5.579329e+001
3.427098e+003,4.958874e+001
3.429027e+003,5.009095e+001
3.430955e+003,4.962945e+001
3.432884e+003,4.731470e+001
3.434812e+003,4.571209e+001
3.436740e+003,4.450664e+001
3.438669e+003,4.266819e+001
3.440597e+003,4.007193e+001
3.442526e+003,3.510954e+001
3.444454e+003,3.204873e+001
3.446383e+003,3.379805e+001
3.448311e+003,3.379182e+001
3.450240e+003,2.929823e+001
3.452168e+003,3.121919e+001
3.454097e+003,3.773972e+001
3.456025e+003,3.380521e+001
3.457954e+003,2.712501e+001
3.459882e+003,3.115317e+001
3.461811e+003,3.485369e+001
3.463739e+003,3.066842e+001
3.465667e+003,2.788167e+001
3.467596e+003,3.081307e+001
3.469524e+003,3.077291e+001
3.471453e+003,2.825186e+001
3.473381e+003,2.908436e+001
3.475310e+003,3.153242e+001
3.477238e+003,3.248985e+001
3.479167e+003,3.230263e+001
3.481095e+003,2.927686e+001
3.483024e+003,2.945753e+001
3.484952e+003,3.647706e+001
3.486881e+003,3.907263e+001
3.488809e+003,3.665174e+001
3.490738e+003,3.399306e+001
3.492666e+003,3.189838e+001
3.494594e+003,3.334136e+001
3.496523e+003,3.444781e+001
3.498451e+003,3.088346e+001
3.500380e+003,2.832625e+001
3.502308e+003,2.822292e+001
3.504237e+003,2.991480e+001
3.506165e+003,3.331488e+001
3.508094e+003,3.271935e+001
3.510022e+003,3.029897e+001
3.511951e+003,3.211166e+001
3.513879e+003,3.402833e+001
3.515808e+003,3.302571e+001
3.517736e+003,2.960382e+001
3.519665e+003,2.287643e+001
3.521593e+003,1.977260e+001
3.523521e+003,2.083304e+001
3.525450e+003,2.070974e+001
3.527378e+003,2.031142e+001
3.529307e+003,2.140316e+001
3.531235e+003,2.313392e+001
3.533164e+003,2.543670e+001
3.535092e+003,2.666730e+001
3.537021e+003,2.564595e+001
3.538949e+003,2.630236e+001
3.540878e+003,2.840946e+001
3.542806e+003,2.839273e+001
3.544735e+003,2.764855e+001
3.546663e+003,2.898969e+001
3.548592e+003,2.973636e+001
3.550520e+003,2.758103e+001
3.552448e+003,2.695868e+001
3.554377e+003,2.967859e+001
3.556305e+003,2.882992e+001
3.558234e+003,2.522888e+001
3.560162e+003,2.241757e+001
3.562091e+003,2.123480e+001
3.564019e+003,2.355064e+001
3.565948e+003,2.639367e+001
3.567876e+003,2.969043e+001
3.569805e+003,2.949607e+001
3.571733e+003,2.566049e+001
3.573662e+003,2.619529e+001
3.575590e+003,2.897414e+001
3.577519e+003,2.719292e+001
3.579447e+003,2.512519e+001
3.581376e+003,2.763589e+001
3.583304e+003,2.769177e+001
3.585233e+003,2.207000e+001
3.587161e+003,2.174664e+001
3.589090e+003,2.657220e+001
3.591018e+003,2.822509e+001
3.592947e+003,2.793375e+001
3.594875e+003,2.756495e+001
3.596803e+003,2.635041e+001
3.598732e+003,2.096898e+001
3.600660e+003,2.268062e+001
3.602589e+003,3.263098e+001
3.604517e+003,3.700254e+001
3.606446e+003,3.472735e+001
3.608374e+003,1.480882e+001
3.610303e+003,6.504962e-002
3.612231e+003,1.767161e+001
3.614160e+003,2.899128e+001
3.616088e+003,2.441629e+001
3.618017e+003,2.020159e+001
3.619945e+003,1.798220e+001
3.621874e+003,1.908739e+001
3.623802e+003,2.203424e+001
3.625730e+003,2.682528e+001
3.627659e+003,2.853226e+001
3.629587e+003,2.324652e+001
3.631516e+003,2.205498e+001
3.633444e+003,2.630947e+001
3.635373e+003,2.510969e+001
3.637301e+003,2.190916e+001
3.639230e+003,2.433119e+001
3.641158e+003,2.726630e+001
3.643087e+003,2.830966e+001
3.645015e+003,2.616920e+001
3.646944e+003,2.030541e+001
3.648872e+003,1.971681e+001
3.650801e+003,2.287068e+001
3.652729e+003,2.483580e+001
3.654657e+003,2.561324e+001
3.656586e+003,2.410703e+001
3.658514e+003,2.337521e+001
3.660443e+003,2.399775e+001
3.662371e+003,2.706090e+001
3.664300e+003,3.133484e+001
3.666228e+003,3.003144e+001
3.668157e+003,2.692986e+001
3.670085e+003,2.473545e+001
3.672014e+003,2.476942e+001
3.673942e+003,2.791887e+001
3.675871e+003,2.828969e+001
3.677799e+003,2.572974e+001
3.679728e+003,2.077369e+001
3.681656e+003,1.772846e+001
3.683584e+003,2.385140e+001
3.685513e+003,2.915603e+001
3.687441e+003,3.011827e+001
3.689370e+003,3.021460e+001
3.691298e+003,2.995359e+001
3.693227e+003,3.135101e+001
3.695155e+003,3.232584e+001
3.697084e+003,2.992772e+001
3.699012e+003,2.651967e+001
3.700941e+003,2.245833e+001
3.702869e+003,2.061874e+001
3.704798e+003,2.136929e+001
3.706726e+003,2.602065e+001
3.708655e+003,3.033748e+001
3.710583e+003,2.790081e+001
3.712511e+003,2.391053e+001
3.714440e+003,1.946945e+001
3.716368e+003,1.967724e+001
3.718297e+003,2.449930e+001
3.720225e+003,2.353887e+001
3.722154e+003,2.129715e+001
3.724082e+003,2.608001e+001
3.726011e+003,2.805500e+001
3.727939e+003,2.165805e+001
3.729868e+003,1.809238e+001
3.731796e+003,1.844839e+001
3.733725e+003,2.287020e+001
3.735653e+003,2.733197e+001
3.737582e+003,2.572845e+001
3.739510e+003,2.417434e+001
3.741438e+003,2.569407e+001
3.743367e+003,2.290647e+001
3.745295e+003,1.689642e+001
3.747224e+003,2.075124e+001
3.749152e+003,2.662022e+001
3.751081e+003,2.557652e+001
3.753009e+003,2.313522e+001
3.754938e+003,2.007472e+001
3.756866e+003,2.337832e+001
3.758795e+003,3.065575e+001
3.760723e+003,2.795385e+001
3.762652e+003,2.370778e+001
3.764580e+003,2.645826e+001
3.766509e+003,2.816176e+001
3.768437e+003,2.699177e+001
3.770365e+003,2.481432e+001
3.772294e+003,2.152895e+001
3.774222e+003,1.363756e+001
3.776151e+003,9.413052e+000
3.778079e+003,1.776713e+001
3.780008e+003,2.169479e+001
3.781936e+003,1.852694e+001
3.783865e+003,2.285202e+001
3.785793e+003,2.932445e+001
3.787722e+003,2.360501e+001
3.789650e+003,2.031139e+001
3.791579e+003,3.070226e+001
3.793507e+003,3.040601e+001
3.795436e+003,1.911511e+001
3.797364e+003,2.001812e+001
3.799292e+003,2.600196e+001
3.801221e+003,2.972480e+001
3.803149e+003,3.045099e+001
3.805078e+003,2.718779e+001
3.807006e+003,2.310052e+001
3.808935e+003,1.924040e+001
3.810863e+003,1.990718e+001
3.812792e+003,2.155278e+001
3.814720e+003,2.050931e+001
3.816649e+003,2.141030e+001
3.818577e+003,2.592344e+001
3.820506e+003,2.740149e+001
3.822434e+003,2.634197e+001
3.824363e+003,2.289364e+001
3.826291e+003,1.985042e+001
3.828219e+003,1.831621e+001
3.830148e+003,1.954371e+001
3.832076e+003,2.309847e+001
3.834005e+003,2.076796e+001
3.835933e+003,1.815003e+001
3.837862e+003,2.334443e+001
3.839790e+003,2.636267e+001
3.841719e+003,2.456845e+001
3.843647e+003,2.482828e+001
3.845576e+003,2.620271e+001
3.847504e+003,2.351334e+001
3.849433e+003,2.161280e+001
3.851361e+003,2.440437e+001
3.853290e+003,2.810111e+001
3.855218e+003,3.161548e+001
3.857146e+003,2.971911e+001
3.859075e+003,2.121482e+001
3.861003e+003,-4.640971e+000
3.862932e+003,-1.471303e+001
3.864860e+003,8.359280e+000
3.866789e+003,2.314838e+001
3.868717e+003,2.930973e+001
3.870646e+003,2.855299e+001
3.872574e+003,2.556148e+001
3.874503e+003,2.266650e+001
3.876431e+003,2.069699e+001
3.878360e+003,1.975319e+001
3.880288e+003,2.362907e+001
3.882217e+003,2.720597e+001
3.884145e+003,2.143845e+001
3.886073e+003,1.886204e+001
3.888002e+003,2.430675e+001
3.889930e+003,1.991009e+001
3.891859e+003,1.205147e+001
3.893787e+003,1.987421e+001
3.895716e+003,2.837827e+001
3.897644e+003,2.927579e+001
3.899573e+003,3.161475e+001
3.901501e+003,3.531142e+001
3.903430e+003,2.894113e+001
3.905358e+003,2.107363e+001
3.907287e+003,1.969140e+001
3.909215e+003,2.111622e+001
3.911144e+003,2.444236e+001
3.913072e+003,2.183976e+001
3.915000e+003,1.773117e+001
3.916929e+003,2.108493e+001
3.918857e+003,2.429609e+001
3.920786e+003,2.407323e+001
3.922714e+003,2.410947e+001
3.924643e+003,2.469761e+001
3.926571e+003,2.812708e+001
3.928500e+003,2.848817e+001
3.930428e+003,1.955820e+001
3.932357e+003,1.848410e+001
3.934285e+003,2.548054e+001
3.936214e+003,3.060294e+001
3.938142e+003,3.231504e+001
3.940071e+003,2.624100e+001
3.941999e+003,2.334908e+001
3.943927e+003,2.639707e+001
3.945856e+003,2.583501e+001
3.947784e+003,2.297513e+001
3.949713e+003,1.686181e+001
3.951641e+003,1.736933e+001
3.953570e+003,2.790358e+001
3.955498e+003,2.777879e+001
3.957427e+003,2.161329e+001
3.959355e+003,2.491006e+001
3.961284e+003,2.668518e+001
3.963212e+003,1.926299e+001
3.965141e+003,1.606949e+001
3.967069e+003,1.771796e+001
3.968998e+003,2.577182e+001
3.970926e+003,3.174432e+001
3.972854e+003,2.951939e+001
3.974783e+003,2.336253e+001
3.976711e+003,1.566954e+001
3.978640e+003,2.271544e+001
3.980568e+003,3.053521e+001
3.982497e+003,2.407138e+001
3.984425e+003,2.045240e+001
3.986354e+003,2.303923e+001
3.988282e+003,2.255191e+001
3.990211e+003,2.180530e+001
3.992139e+003,2.527670e+001
3.994068e+003,2.784800e+001
3.995996e+003,2.834280e+001
3.997925e+003,2.277590e+001
3.999853e+003,1.678422e+001
4.001781e+003,2.195803e+001
4.003710e+003,2.460097e+001
4.005638e+003,2.023732e+001
4.007567e+003,1.775831e+001
4.009495e+003,1.761070e+001
4.011424e+003,2.189538e+001
4.013352e+003,2.478709e+001
4.015281e+003,2.185877e+001
4.017209e+003,2.476460e+001
4.019138e+003,2.929125e+001
4.021066e+003,2.207517e+001
4.022995e+003,1.785186e+001
4.024923e+003,2.420082e+001
4.026852e+003,2.536388e+001
4.028780e+003,2.204508e+001
4.030708e+003,2.013639e+001
4.032637e+003,1.855374e+001
4.034565e+003,1.597985e+001
4.036494e+003,1.922640e+001
4.038422e+003,2.572161e+001
4.040351e+003,2.043587e+001
4.042279e+003,1.596452e+001
4.044208e+003,2.377530e+001
4.046136e+003,2.359369e+001
4.048065e+003,1.731810e+001
4.049993e+003,1.826762e+001
4.051922e+003,1.938773e+001
4.053850e+003,1.517148e+001
4.055779e+003,1.641800e+001
4.057707e+003,2.239113e+001
4.059635e+003,2.531391e+001
4.061564e+003,2.595356e+001
4.063492e+003,2.403193e+001
4.065421e+003,2.363511e+001
4.067349e+003,2.479169e+001
4.069278e+003,2.712978e+001
4.071206e+003,2.613234e+001
4.073135e+003,1.355477e+001
4.075063e+003,1.159765e+001
4.076992e+003,1.895437e+001
4.078920e+003,2.267691e+001
4.080849e+003,2.363744e+001
4.082777e+003,2.206849e+001
4.084706e+003,1.878463e+001
4.086634e+003,1.531691e+001
4.088563e+003,1.736579e+001
4.090491e+003,2.151672e+001
4.092419e+003,2.688765e+001
4.094348e+003,2.554873e+001
4.096276e+003,1.948717e+001
4.098205e+003,1.749033e+001
4.100133e+003,1.836865e+001
4.102062e+003,2.252433e+001
4.103990e+003,2.526340e+001
4.105919e+003,2.656477e+001
4.107847e+003,2.701867e+001
4.109776e+003,2.743394e+001
4.111704e+003,2.944086e+001
4.113633e+003,2.603367e+001
4.115561e+003,2.062045e+001
4.117490e+003,2.213021e+001
4.119418e+003,2.478493e+001
4.121347e+003,2.684564e+001
4.123275e+003,2.109710e+001
4.125204e+003,1.319218e+001
4.127132e+003,1.420391e+001
4.129061e+003,1.911623e+001
4.130989e+003,2.640493e+001
4.132917e+003,2.493757e+001
4.134846e+003,2.007575e+001
4.136774e+003,1.963618e+001
4.138703e+003,2.232074e+001
4.140631e+003,2.795160e+001
4.142560e+003,2.535104e+001
4.144488e+003,2.093495e+001
4.146417e+003,2.345936e+001
4.148345e+003,2.297123e+001
4.150273e+003,1.808384e+001
4.152202e+003,1.735518e+001
4.154130e+003,1.800560e+001
4.156059e+003,1.758197e+001
4.157987e+003,1.701432e+001
4.159916e+003,1.726743e+001
4.161844e+003,2.678682e+001
4.163773e+003,3.118306e+001
4.165701e+003,1.549850e+001
4.167630e+003,1.180176e+001
4.169558e+003,1.705374e+001
4.171487e+003,1.590087e+001
4.173415e+003,1.798566e+001
4.175344e+003,2.831777e+001
4.177272e+003,2.727579e+001
4.179201e+003,1.975297e+001
4.181129e+003,1.679979e+001
4.183058e+003,1.253942e+001
4.184986e+003,5.774903e+000
4.186915e+003,1.274422e+001
4.188843e+003,2.363966e+001
4.190771e+003,2.731965e+001
4.192700e+003,2.647628e+001
4.194628e+003,2.257692e+001
4.196557e+003,2.799020e+001
4.198485e+003,3.148900e+001
4.200414e+003,2.231244e+001
4.202342e+003,2.128451e+001
4.204271e+003,2.742993e+001
4.206199e+003,2.755829e+001
4.208127e+003,2.749829e+001
4.210056e+003,3.061171e+001
4.211984e+003,2.971672e+001
4.213913e+003,2.629347e+001
4.215841e+003,2.271320e+001
4.217770e+003,2.081795e+001
4.219698e+003,2.114866e+001
4.221627e+003,2.653493e+001
4.223555e+003,3.077339e+001
4.225484e+003,2.434933e+001
4.227412e+003,2.098386e+001
4.229341e+003,2.156247e+001
4.231269e+003,1.818063e+001
4.233198e+003,1.652137e+001
4.235126e+003,2.276161e+001
4.237055e+003,2.433256e+001
4.238983e+003,2.242804e+001
4.240912e+003,1.920855e+001
4.242840e+003,2.027726e+001
4.244769e+003,2.858842e+001
4.246697e+003,2.504129e+001
4.248625e+003,1.870893e+001
4.250554e+003,1.907844e+001
