1.159199e+002,1.135867e+002
1.178484e+002,1.189993e+002
1.197769e+002,1.235550e+002
1.217053e+002,1.271876e+002
1.236338e+002,1.292442e+002
1.255623e+002,1.290683e+002
1.274907e+002,1.277741e+002
1.294192e+002,1.266021e+002
1.313477e+002,1.267511e+002
1.332761e+002,1.253141e+002
1.352046e+002,1.206126e+002
1.371331e+002,1.117971e+002
1.390615e+002,1.041204e+002
1.409900e+002,9.704746e+001
1.429185e+002,9.140652e+001
1.448469e+002,8.953539e+001
1.467754e+002,9.345580e+001
1.487039e+002,9.898248e+001
1.506323e+002,1.062205e+002
1.525608e+002,1.165526e+002
1.544893e+002,1.206568e+002
1.564177e+002,1.134344e+002
1.583462e+002,9.800710e+001
1.602747e+002,9.001845e+001
1.622031e+002,9.593879e+001
1.641316e+002,1.023291e+002
1.660601e+002,1.015360e+002
1.679885e+002,8.919320e+001
1.699170e+002,8.023958e+001
1.718455e+002,7.889557e+001
1.737739e+002,8.507996e+001
1.757024e+002,8.761593e+001
1.776309e+002,8.278397e+001
1.795593e+002,7.643227e+001
1.814878e+002,7.347841e+001
1.834163e+002,7.837978e+001
1.853447e+002,8.208624e+001
1.872732e+002,8.273212e+001
1.892017e+002,8.065507e+001
1.911301e+002,7.830429e+001
1.930586e+002,7.567252e+001
1.949871e+002,7.310126e+001
1.969155e+002,7.108680e+001
1.988440e+002,7.048868e+001
2.007725e+002,6.954628e+001
2.027009e+002,6.720977e+001
2.046294e+002,6.322921e+001
2.065579e+002,6.054942e+001
2.084864e+002,5.984405e+001
2.104148e+002,6.057248e+001
2.123433e+002,6.155039e+001
2.142718e+002,6.214809e+001
2.162002e+002,6.361429e+001
2.181287e+002,6.676275e+001
2.200572e+002,7.288278e+001
2.219856e+002,7.713593e+001
2.239141e+002,7.867637e+001
2.258426e+002,7.803777e+001
2.277710e+002,7.691886e+001
2.296995e+002,7.391000e+001
2.316280e+002,7.210631e+001
2.335564e+002,7.292247e+001
2.354849e+002,8.000799e+001
2.374134e+002,8.491437e+001
2.393418e+002,8.599135e+001
2.412703e+002,8.481110e+001
2.431988e+002,8.493447e+001
2.451272e+002,8.990987e+001
2.470557e+002,9.358500e+001
2.489842e+002,9.220786e+001
2.509126e+002,8.247243e+001
2.528411e+002,7.452400e+001
2.547696e+002,7.041525e+001
2.566980e+002,6.915444e+001
2.586265e+002,6.858025e+001
2.605550e+002,6.993375e+001
2.624834e+002,7.102496e+001
2.644119e+002,7.001734e+001
2.663404e+002,6.593935e+001
2.682688e+002,6.375471e+001
2.701973e+002,6.619771e+001
2.721258e+002,7.197994e+001
2.740542e+002,7.555653e+001
2.759827e+002,7.689597e+001
2.779112e+002,7.621392e+001
2.798396e+002,7.264002e+001
2.817681e+002,6.559380e+001
2.836966e+002,5.955502e+001
2.856250e+002,5.568623e+001
2.875535e+002,5.364293e+001
2.894820e+002,5.233401e+001
2.914104e+002,5.263969e+001
2.933389e+002,5.288300e+001
2.952674e+002,5.195808e+001
2.971958e+002,4.935713e+001
2.991243e+002,4.802393e+001
3.010528e+002,4.950535e+001
3.029813e+002,5.265877e+001
3.049097e+002,5.388104e+001
3.068382e+002,5.218007e+001
3.087667e+002,4.964106e+001
3.106951e+002,4.665721e+001
3.126236e+002,4.229852e+001
3.145521e+002,4.068747e+001
3.164805e+002,4.429689e+001
3.184090e+002,5.054097e+001
3.203375e+002,5.393879e+001
3.222659e+002,5.291270e+001
3.241944e+002,5.137955e+001
3.261229e+002,5.112482e+001
3.280513e+002,5.328294e+001
3.299798e+002,5.369803e+001
3.319083e+002,5.024380e+001
3.338367e+002,4.578936e+001
3.357652e+002,4.425043e+001
3.376937e+002,4.737067e+001
3.396221e+002,5.055924e+001
3.415506e+002,5.232644e+001
3.434791e+002,5.235055e+001
3.454075e+002,5.217858e+001
3.473360e+002,5.105056e+001
3.492645e+002,5.020440e+001
3.511929e+002,5.054865e+001
3.531214e+002,5.232839e+001
3.550499e+002,5.497368e+001
3.569783e+002,5.885925e+001
3.589068e+002,6.391448e+001
3.608353e+002,6.773331e+001
3.627637e+002,6.983706e+001
3.646922e+002,7.106009e+001
3.666207e+002,7.198831e+001
3.685491e+002,7.261040e+001
3.704776e+002,7.293866e+001
3.724061e+002,7.293336e+001
3.743345e+002,7.264500e+001
3.762630e+002,7.232564e+001
3.781915e+002,7.230495e+001
3.801199e+002,7.182804e+001
3.820484e+002,7.044215e+001
3.839769e+002,6.744302e+001
3.859053e+002,6.518859e+001
3.878338e+002,6.454395e+001
3.897623e+002,6.444936e+001
3.916907e+002,6.301376e+001
3.936192e+002,5.877863e+001
3.955477e+002,5.571859e+001
3.974761e+002,5.531939e+001
3.994046e+002,5.816739e+001
4.013331e+002,6.062496e+001
4.032615e+002,6.334124e+001
4.051900e+002,6.532458e+001
4.071185e+002,6.572327e+001
4.090469e+002,6.417554e+001
4.109754e+002,6.235670e+001
4.129039e+002,5.997150e+001
4.148323e+002,5.737866e+001
4.167608e+002,5.687295e+001
4.186893e+002,6.104271e+001
4.206177e+002,6.482183e+001
4.225462e+002,6.538569e+001
4.244747e+002,6.217049e+001
4.264032e+002,5.985329e+001
4.283316e+002,5.941863e+001
4.302601e+002,6.018495e+001
4.321886e+002,6.115957e+001
4.341170e+002,6.229512e+001
4.360455e+002,6.367953e+001
4.379740e+002,6.541893e+001
4.399024e+002,6.748532e+001
4.418309e+002,6.966188e+001
4.437594e+002,7.281696e+001
4.456878e+002,7.550278e+001
4.476163e+002,7.634667e+001
4.495448e+002,7.490498e+001
4.514732e+002,7.352450e+001
4.534017e+002,7.260061e+001
4.553302e+002,7.208865e+001
4.572586e+002,7.202762e+001
4.591871e+002,7.318919e+001
4.611156e+002,7.411226e+001
4.630440e+002,7.398578e+001
4.649725e+002,7.286539e+001
4.669010e+002,7.261242e+001
4.688294e+002,7.413068e+001
4.707579e+002,7.625571e+001
4.726864e+002,7.807296e+001
4.746148e+002,7.918588e+001
4.765433e+002,8.039440e+001
4.784718e+002,8.103969e+001
4.804002e+002,8.183369e+001
4.823287e+002,8.448009e+001
4.842572e+002,9.085138e+001
4.861856e+002,9.680532e+001
4.881141e+002,1.009593e+002
4.900426e+002,1.032919e+002
4.919710e+002,1.034152e+002
4.938995e+002,9.864477e+001
4.958280e+002,9.338191e+001
4.977564e+002,9.202782e+001
4.996849e+002,9.643900e+001
5.016134e+002,9.922061e+001
5.035418e+002,9.763335e+001
5.054703e+002,9.280834e+001
5.073988e+002,8.942598e+001
5.093272e+002,8.575523e+001
5.112557e+002,8.480023e+001
5.131842e+002,8.870195e+001
5.151127e+002,9.705257e+001
5.170411e+002,1.058299e+002
5.189696e+002,1.130619e+002
5.208981e+002,1.212653e+002
5.228265e+002,1.334424e+002
5.247550e+002,1.542595e+002
5.266835e+002,1.698293e+002
5.286119e+002,1.783746e+002
5.305404e+002,1.801378e+002
5.324689e+002,1.753000e+002
5.343973e+002,1.587199e+002
5.363258e+002,1.408423e+002
5.382543e+002,1.227809e+002
5.401827e+002,1.044579e+002
5.421112e+002,9.236766e+001
5.440397e+002,9.112904e+001
5.459681e+002,9.274080e+001
5.478966e+002,9.250092e+001
5.498251e+002,9.002147e+001
5.517535e+002,8.695042e+001
5.536820e+002,8.307913e+001
5.556105e+002,7.902175e+001
5.575389e+002,7.558623e+001
5.594674e+002,7.213747e+001
5.613959e+002,7.037148e+001
5.633243e+002,7.171014e+001
5.652528e+002,7.541231e+001
5.671813e+002,7.859422e+001
5.691097e+002,8.227177e+001
5.710382e+002,8.436945e+001
5.729667e+002,8.274402e+001
5.748951e+002,7.687214e+001
5.768236e+002,7.358998e+001
5.787521e+002,7.550738e+001
5.806805e+002,7.908105e+001
5.826090e+002,8.173788e+001
5.845375e+002,8.389695e+001
5.864659e+002,8.399299e+001
5.883944e+002,7.988155e+001
5.903229e+002,7.408952e+001
5.922513e+002,7.165757e+001
5.941798e+002,7.411895e+001
5.961083e+002,7.668029e+001
5.980367e+002,7.738193e+001
5.999652e+002,7.647373e+001
6.018937e+002,7.662769e+001
6.038221e+002,7.962122e+001
6.057506e+002,8.203103e+001
6.076791e+002,8.187318e+001
6.096075e+002,7.909811e+001
6.115360e+002,7.675238e+001
6.134645e+002,7.447902e+001
6.153929e+002,7.335633e+001
6.173214e+002,7.433084e+001
6.192499e+002,7.910902e+001
6.211783e+002,8.286691e+001
6.231068e+002,8.579094e+001
6.250353e+002,8.744807e+001
6.269637e+002,8.685434e+001
6.288922e+002,8.280381e+001
6.308207e+002,7.970997e+001
6.327491e+002,8.014587e+001
6.346776e+002,8.296134e+001
6.366061e+002,8.331762e+001
6.385345e+002,7.701825e+001
6.404630e+002,7.233904e+001
6.423915e+002,7.292429e+001
6.443199e+002,7.819995e+001
6.462484e+002,8.245208e+001
6.481769e+002,8.512856e+001
6.501053e+002,8.669264e+001
6.520338e+002,8.749436e+001
6.539623e+002,8.755394e+001
6.558907e+002,8.677969e+001
6.578192e+002,8.350160e+001
6.597477e+002,8.043683e+001
6.616761e+002,8.110277e+001
6.636046e+002,8.658430e+001
6.655331e+002,8.965321e+001
6.674615e+002,8.602502e+001
6.693900e+002,7.968391e+001
6.713185e+002,7.567079e+001
6.732469e+002,7.567800e+001
6.751754e+002,7.631792e+001
6.771039e+002,7.696404e+001
6.790323e+002,7.812585e+001
6.809608e+002,8.130637e+001
6.828893e+002,8.908615e+001
6.848177e+002,9.438853e+001
6.867462e+002,9.267479e+001
6.886747e+002,8.441594e+001
6.906031e+002,8.103791e+001
6.925316e+002,8.632784e+001
6.944601e+002,9.266618e+001
6.963885e+002,9.810411e+001
6.983170e+002,1.025053e+002
7.002455e+002,1.035050e+002
7.021740e+002,9.765508e+001
7.041024e+002,9.128757e+001
7.060309e+002,8.838506e+001
7.079594e+002,9.057023e+001
7.098878e+002,9.098739e+001
7.118163e+002,8.662157e+001
7.137448e+002,8.224944e+001
7.156732e+002,8.333788e+001
7.176017e+002,9.087944e+001
7.195302e+002,9.594350e+001
7.214586e+002,9.496857e+001
7.233871e+002,9.147105e+001
7.253156e+002,8.893089e+001
7.272440e+002,8.830847e+001
7.291725e+002,8.704051e+001
7.311010e+002,8.322787e+001
7.330294e+002,7.902155e+001
7.349579e+002,7.821897e+001
7.368864e+002,8.113944e+001
7.388149e+002,8.599200e+001
7.407433e+002,9.295998e+001
7.426718e+002,1.013881e+002
7.446003e+002,1.100940e+002
7.465287e+002,1.187289e+002
7.484572e+002,1.280338e+002
7.503857e+002,1.419136e+002
7.523141e+002,1.572928e+002
7.542426e+002,1.620205e+002
7.561711e+002,1.513584e+002
7.580995e+002,1.379822e+002
7.600280e+002,1.251964e+002
7.619565e+002,1.132777e+002
7.638849e+002,1.046000e+002
7.658134e+002,1.015394e+002
7.677419e+002,9.964977e+001
7.696703e+002,9.777345e+001
7.715988e+002,9.591912e+001
7.735273e+002,9.449751e+001
7.754557e+002,9.284901e+001
7.773842e+002,9.236826e+001
7.793127e+002,9.339329e+001
7.812411e+002,9.587829e+001
7.831696e+002,1.007786e+002
7.850981e+002,1.101508e+002
7.870266e+002,1.203137e+002
7.889550e+002,1.307029e+002
7.908835e+002,1.418089e+002
7.928120e+002,1.488706e+002
7.947404e+002,1.511751e+002
7.966689e+002,1.499796e+002
7.985974e+002,1.450296e+002
8.005258e+002,1.362731e+002
8.024543e+002,1.280825e+002
8.043828e+002,1.207173e+002
8.063112e+002,1.143564e+002
8.082397e+002,1.090354e+002
8.101682e+002,1.046280e+002
8.120966e+002,1.021384e+002
8.140251e+002,1.033894e+002
8.159536e+002,1.051964e+002
8.178820e+002,1.053603e+002
8.198105e+002,1.039293e+002
8.217390e+002,1.025598e+002
8.236674e+002,1.019967e+002
8.255959e+002,1.013340e+002
8.275244e+002,9.993668e+001
8.294528e+002,9.733134e+001
8.313813e+002,9.515243e+001
8.333098e+002,9.117000e+001
8.352382e+002,8.908789e+001
8.371667e+002,9.272900e+001
8.390952e+002,1.020535e+002
8.410236e+002,1.114579e+002
8.429521e+002,1.180962e+002
8.448806e+002,1.259144e+002
8.468090e+002,1.373828e+002
8.487375e+002,1.527287e+002
8.506660e+002,1.716200e+002
8.525944e+002,2.027797e+002
8.545229e+002,2.309699e+002
8.564514e+002,2.442600e+002
8.583798e+002,2.430383e+002
8.603083e+002,2.321079e+002
8.622368e+002,2.042179e+002
8.641652e+002,1.733594e+002
8.660937e+002,1.480347e+002
8.680222e+002,1.285971e+002
8.699506e+002,1.136621e+002
8.718791e+002,1.031455e+002
8.738076e+002,9.651606e+001
8.757360e+002,9.458501e+001
8.776645e+002,9.802568e+001
8.795930e+002,1.007861e+002
8.815214e+002,1.020224e+002
8.834499e+002,1.029783e+002
8.853784e+002,1.046470e+002
8.873068e+002,1.070689e+002
8.892353e+002,1.084586e+002
8.911638e+002,1.062433e+002
8.930922e+002,1.049662e+002
8.950207e+002,1.067591e+002
8.969492e+002,1.119309e+002
8.988776e+002,1.182115e+002
9.008061e+002,1.262749e+002
9.027346e+002,1.346824e+002
9.046630e+002,1.442875e+002
9.065915e+002,1.543300e+002
9.085200e+002,1.598044e+002
9.104484e+002,1.584725e+002
9.123769e+002,1.547702e+002
9.143054e+002,1.495343e+002
9.162338e+002,1.429431e+002
9.181623e+002,1.385074e+002
9.200908e+002,1.334667e+002
9.220192e+002,1.332084e+002
9.239477e+002,1.417714e+002
9.258762e+002,1.570527e+002
9.278046e+002,1.718628e+002
9.297331e+002,1.892204e+002
9.316616e+002,1.995508e+002
9.335900e+002,1.969477e+002
9.355185e+002,1.846399e+002
9.374470e+002,1.712261e+002
9.393754e+002,1.529534e+002
9.413039e+002,1.388244e+002
9.432324e+002,1.322139e+002
9.451608e+002,1.302681e+002
9.470893e+002,1.269473e+002
9.490178e+002,1.205765e+002
9.509462e+002,1.174574e+002
9.528747e+002,1.216318e+002
9.548032e+002,1.287039e+002
9.567316e+002,1.343482e+002
9.586601e+002,1.391494e+002
9.605886e+002,1.403020e+002
9.625170e+002,1.362277e+002
9.644455e+002,1.292836e+002
9.663740e+002,1.205352e+002
9.683024e+002,1.071534e+002
9.702309e+002,9.971523e+001
9.721594e+002,1.044908e+002
9.740878e+002,1.103895e+002
9.760163e+002,1.077199e+002
9.779448e+002,9.738812e+001
9.798733e+002,9.235541e+001
9.818018e+002,9.908228e+001
9.837302e+002,1.062142e+002
9.856587e+002,1.075022e+002
9.875872e+002,1.027875e+002
9.895156e+002,1.011594e+002
9.914441e+002,1.065845e+002
9.933726e+002,1.105568e+002
9.953010e+002,1.094946e+002
9.972295e+002,1.047593e+002
9.991580e+002,1.015401e+002
1.001086e+003,1.000111e+002
1.003015e+003,9.956635e+001
1.004943e+003,1.005890e+002
1.006872e+003,1.024175e+002
1.008800e+003,1.041955e+002
1.010729e+003,1.063296e+002
1.012657e+003,1.073122e+002
1.014586e+003,1.061658e+002
1.016514e+003,1.042424e+002
1.018443e+003,1.028915e+002
1.020371e+003,1.020013e+002
1.022300e+003,1.021012e+002
1.024228e+003,1.045014e+002
1.026156e+003,1.069263e+002
1.028085e+003,1.079364e+002
1.030013e+003,1.076479e+002
1.031942e+003,1.060571e+002
1.033870e+003,1.008244e+002
1.035799e+003,9.732018e+001
1.037727e+003,9.887825e+001
1.039656e+003,1.049856e+002
1.041584e+003,1.090248e+002
1.043513e+003,1.083977e+002
1.045441e+003,1.086958e+002
1.047370e+003,1.107577e+002
1.049298e+003,1.146210e+002
1.051227e+003,1.210584e+002
1.053155e+003,1.321573e+002
1.055083e+003,1.399226e+002
1.057012e+003,1.407005e+002
1.058940e+003,1.381073e+002
1.060869e+003,1.350069e+002
1.062797e+003,1.309597e+002
1.064726e+003,1.291448e+002
1.066654e+003,1.306087e+002
1.068583e+003,1.339778e+002
1.070511e+003,1.388566e+002
1.072440e+003,1.453174e+002
1.074368e+003,1.521280e+002
1.076297e+003,1.640094e+002
1.078225e+003,1.710786e+002
1.080154e+003,1.677310e+002
1.082082e+003,1.570134e+002
1.084010e+003,1.480485e+002
1.085939e+003,1.415998e+002
1.087867e+003,1.350152e+002
1.089796e+003,1.254665e+002
1.091724e+003,1.162080e+002
1.093653e+003,1.115420e+002
1.095581e+003,1.128900e+002
1.097510e+003,1.140603e+002
1.099438e+003,1.140979e+002
1.101367e+003,1.139221e+002
1.103295e+003,1.137083e+002
1.105224e+003,1.133876e+002
1.107152e+003,1.150905e+002
1.109081e+003,1.210338e+002
1.111009e+003,1.265960e+002
1.112938e+003,1.308159e+002
1.114866e+003,1.333664e+002
1.116794e+003,1.332080e+002
1.118723e+003,1.292372e+002
1.120651e+003,1.253513e+002
1.122580e+003,1.225982e+002
1.124508e+003,1.205464e+002
1.126437e+003,1.187214e+002
1.128365e+003,1.167809e+002
1.130294e+003,1.163027e+002
1.132222e+003,1.184993e+002
1.134151e+003,1.210544e+002
1.136079e+003,1.220735e+002
1.138008e+003,1.218467e+002
1.139936e+003,1.245864e+002
1.141865e+003,1.339940e+002
1.143793e+003,1.406514e+002
1.145721e+003,1.402753e+002
1.147650e+003,1.354565e+002
1.149578e+003,1.293783e+002
1.151507e+003,1.209304e+002
1.153435e+003,1.164127e+002
1.155364e+003,1.214009e+002
1.157292e+003,1.276310e+002
1.159221e+003,1.300092e+002
1.161149e+003,1.281828e+002
1.163078e+003,1.255944e+002
1.165006e+003,1.207838e+002
1.166935e+003,1.170061e+002
1.168863e+003,1.159826e+002
1.170792e+003,1.167082e+002
1.172720e+003,1.162316e+002
1.174648e+003,1.136798e+002
1.176577e+003,1.122420e+002
1.178505e+003,1.140982e+002
1.180434e+003,1.161659e+002
1.182362e+003,1.149700e+002
1.184291e+003,1.106862e+002
1.186219e+003,1.091291e+002
1.188148e+003,1.121080e+002
1.190076e+003,1.166321e+002
1.192005e+003,1.232080e+002
1.193933e+003,1.304139e+002
1.195862e+003,1.332590e+002
1.197790e+003,1.273232e+002
1.199719e+003,1.240392e+002
1.201647e+003,1.260804e+002
1.203575e+003,1.299826e+002
1.205504e+003,1.329831e+002
1.207432e+003,1.350528e+002
1.209361e+003,1.356401e+002
1.211289e+003,1.348888e+002
1.213218e+003,1.324767e+002
1.215146e+003,1.269144e+002
1.217075e+003,1.199507e+002
1.219003e+003,1.141713e+002
1.220932e+003,1.084611e+002
1.222860e+003,1.085067e+002
1.224789e+003,1.229556e+002
1.226717e+003,1.381586e+002
1.228646e+003,1.432764e+002
1.230574e+003,1.370042e+002
1.232502e+003,1.333375e+002
1.234431e+003,1.357545e+002
1.236359e+003,1.369887e+002
1.238288e+003,1.336365e+002
1.240216e+003,1.281586e+002
1.242145e+003,1.258488e+002
1.244073e+003,1.284579e+002
1.246002e+003,1.298610e+002
1.247930e+003,1.288492e+002
1.249859e+003,1.272539e+002
1.251787e+003,1.257011e+002
1.253716e+003,1.244647e+002
1.255644e+003,1.253414e+002
1.257573e+003,1.305128e+002
1.259501e+003,1.330837e+002
1.261429e+003,1.270806e+002
1.263358e+003,1.189637e+002
1.265286e+003,1.162866e+002
1.267215e+003,1.199762e+002
1.269143e+003,1.230731e+002
1.271072e+003,1.251686e+002
1.273000e+003,1.260312e+002
1.274929e+003,1.243500e+002
1.276857e+003,1.212852e+002
1.278786e+003,1.207199e+002
1.280714e+003,1.254094e+002
1.282643e+003,1.287337e+002
1.284571e+003,1.301705e+002
1.286500e+003,1.305516e+002
1.288428e+003,1.295343e+002
1.290356e+003,1.274481e+002
1.292285e+003,1.285190e+002
1.294213e+003,1.351115e+002
1.296142e+003,1.406060e+002
1.298070e+003,1.407593e+002
1.299999e+003,1.396189e+002
1.301927e+003,1.423584e+002
1.303856e+003,1.492978e+002
1.305784e+003,1.546049e+002
1.307713e+003,1.574230e+002
1.309641e+003,1.583331e+002
1.311570e+003,1.572961e+002
1.313498e+003,1.547201e+002
1.315427e+003,1.514718e+002
1.317355e+003,1.465846e+002
1.319283e+003,1.432280e+002
1.321212e+003,1.429355e+002
1.323140e+003,1.429407e+002
1.325069e+003,1.407359e+002
1.326997e+003,1.367393e+002
1.328926e+003,1.357884e+002
1.330854e+003,1.396647e+002
1.332783e+003,1.434071e+002
1.334711e+003,1.456808e+002
1.336640e+003,1.478770e+002
1.338568e+003,1.521264e+002
1.340497e+003,1.581147e+002
1.342425e+003,1.615116e+002
1.344354e+003,1.608324e+002
1.346282e+003,1.596961e+002
1.348210e+003,1.599666e+002
1.350139e+003,1.602755e+002
1.352068e+003,1.588160e+002
1.353996e+003,1.554579e+002
1.355924e+003,1.521659e+002
1.357853e+003,1.481677e+002
1.359781e+003,1.457767e+002
1.361710e+003,1.473981e+002
1.363638e+003,1.507397e+002
1.365567e+003,1.505686e+002
1.367495e+003,1.438148e+002
1.369424e+003,1.421156e+002
1.371352e+003,1.527169e+002
1.373281e+003,1.611812e+002
1.375209e+003,1.587691e+002
1.377138e+003,1.489585e+002
1.379066e+003,1.429210e+002
1.380995e+003,1.409270e+002
1.382923e+003,1.420638e+002
1.384851e+003,1.474682e+002
1.386780e+003,1.548273e+002
1.388708e+003,1.628839e+002
1.390637e+003,1.717211e+002
1.392565e+003,1.820549e+002
1.394494e+003,1.950526e+002
1.396422e+003,2.058134e+002
1.398351e+003,2.148705e+002
1.400279e+003,2.197720e+002
1.402208e+003,2.174266e+002
1.404136e+003,2.094467e+002
1.406065e+003,2.007714e+002
1.407993e+003,1.907449e+002
1.409922e+003,1.827795e+002
1.411850e+003,1.785152e+002
1.413778e+003,1.761589e+002
1.415707e+003,1.734281e+002
1.417635e+003,1.708841e+002
1.419564e+003,1.748157e+002
1.421492e+003,1.903110e+002
1.423421e+003,2.027801e+002
1.425349e+003,2.105896e+002
1.427278e+003,2.134979e+002
1.429206e+003,2.104826e+002
1.431135e+003,2.014801e+002
1.433063e+003,1.904608e+002
1.434992e+003,1.732248e+002
1.436920e+003,1.596871e+002
1.438849e+003,1.525737e+002
1.440777e+003,1.484367e+002
1.442705e+003,1.446718e+002
1.444634e+003,1.413751e+002
1.446562e+003,1.391451e+002
1.448491e+003,1.379275e+002
1.450419e+003,1.378375e+002
1.452348e+003,1.402770e+002
1.454276e+003,1.427240e+002
1.456205e+003,1.432594e+002
1.458133e+003,1.419266e+002
1.460062e+003,1.386166e+002
1.461990e+003,1.311315e+002
1.463919e+003,1.276443e+002
1.465847e+003,1.350611e+002
1.467776e+003,1.432699e+002
1.469704e+003,1.441597e+002
1.471632e+003,1.397571e+002
1.473561e+003,1.365350e+002
1.475489e+003,1.346016e+002
1.477418e+003,1.347488e+002
1.479346e+003,1.386913e+002
1.481275e+003,1.431971e+002
1.483203e+003,1.463107e+002
1.485132e+003,1.482389e+002
1.487060e+003,1.497852e+002
1.488989e+003,1.507300e+002
1.490917e+003,1.520178e+002
1.492846e+003,1.546269e+002
1.494774e+003,1.568620e+002
1.496703e+003,1.575876e+002
1.498631e+003,1.573963e+002
1.500559e+003,1.581507e+002
1.502488e+003,1.608749e+002
1.504416e+003,1.616291e+002
1.506345e+003,1.579630e+002
1.508273e+003,1.547385e+002
1.510202e+003,1.555429e+002
1.512130e+003,1.574966e+002
1.514059e+003,1.545192e+002
1.515987e+003,1.435957e+002
1.517916e+003,1.372938e+002
1.519844e+003,1.383324e+002
1.521773e+003,1.402076e+002
1.523701e+003,1.418746e+002
1.525630e+003,1.427700e+002
1.527558e+003,1.414682e+002
1.529486e+003,1.374286e+002
1.531415e+003,1.358078e+002
1.533343e+003,1.376440e+002
1.535272e+003,1.402633e+002
1.537200e+003,1.452596e+002
1.539129e+003,1.491336e+002
1.541057e+003,1.474841e+002
1.542986e+003,1.412324e+002
1.544914e+003,1.382203e+002
1.546843e+003,1.394476e+002
1.548771e+003,1.414508e+002
1.550700e+003,1.446906e+002
1.552628e+003,1.473992e+002
1.554557e+003,1.475755e+002
1.556485e+003,1.464018e+002
1.558413e+003,1.470371e+002
1.560342e+003,1.496601e+002
1.562270e+003,1.528235e+002
1.564199e+003,1.587187e+002
1.566127e+003,1.615405e+002
1.568056e+003,1.542373e+002
1.569984e+003,1.446373e+002
1.571913e+003,1.442915e+002
1.573841e+003,1.527756e+002
1.575770e+003,1.582919e+002
1.577698e+003,1.592339e+002
1.579627e+003,1.579934e+002
1.581555e+003,1.519538e+002
1.583484e+003,1.471802e+002
1.585412e+003,1.503835e+002
1.587340e+003,1.591617e+002
1.589269e+003,1.625803e+002
1.591197e+003,1.581529e+002
1.593126e+003,1.567826e+002
1.595054e+003,1.644024e+002
1.596983e+003,1.712822e+002
1.598911e+003,1.713590e+002
1.600840e+003,1.674956e+002
1.602768e+003,1.651144e+002
1.604697e+003,1.643179e+002
1.606625e+003,1.633082e+002
1.608554e+003,1.616045e+002
1.610482e+003,1.602110e+002
1.612411e+003,1.602825e+002
1.614339e+003,1.602461e+002
1.616267e+003,1.577168e+002
1.618196e+003,1.533715e+002
1.620124e+003,1.529685e+002
1.622053e+003,1.575556e+002
1.623981e+003,1.634529e+002
1.625910e+003,1.718188e+002
1.627838e+003,1.791962e+002
1.629767e+003,1.832239e+002
1.631695e+003,1.852775e+002
1.633624e+003,1.880031e+002
1.635552e+003,1.914760e+002
1.637481e+003,1.946528e+002
1.639409e+003,1.967235e+002
1.641338e+003,1.998688e+002
1.643266e+003,2.068028e+002
1.645194e+003,2.131713e+002
1.647123e+003,2.148575e+002
1.649051e+003,2.127269e+002
1.650980e+003,2.121907e+002
1.652908e+003,2.151805e+002
1.654837e+003,2.137289e+002
1.656765e+003,2.022639e+002
1.658694e+003,1.917440e+002
1.660622e+003,1.865520e+002
1.662551e+003,1.840184e+002
1.664479e+003,1.813783e+002
1.666408e+003,1.788198e+002
1.668336e+003,1.742111e+002
1.670265e+003,1.651030e+002
1.672193e+003,1.590808e+002
1.674121e+003,1.601032e+002
1.676050e+003,1.611431e+002
1.677978e+003,1.571897e+002
1.679907e+003,1.508970e+002
1.681835e+003,1.477633e+002
1.683764e+003,1.480390e+002
1.685692e+003,1.500444e+002
1.687621e+003,1.567335e+002
1.689549e+003,1.603253e+002
1.691478e+003,1.563559e+002
1.693406e+003,1.518236e+002
1.695335e+003,1.526131e+002
1.697263e+003,1.568923e+002
1.699192e+003,1.581872e+002
1.701120e+003,1.553212e+002
1.703048e+003,1.538578e+002
1.704977e+003,1.556058e+002
1.706905e+003,1.564971e+002
1.708834e+003,1.551885e+002
1.710762e+003,1.527576e+002
1.712691e+003,1.483168e+002
1.714619e+003,1.431902e+002
1.716548e+003,1.456288e+002
1.718476e+003,1.600502e+002
1.720405e+003,1.675509e+002
1.722333e+003,1.610187e+002
1.724262e+003,1.548900e+002
1.726190e+003,1.534497e+002
1.728119e+003,1.542279e+002
1.730047e+003,1.552426e+002
1.731975e+003,1.564162e+002
1.733904e+003,1.575457e+002
1.735832e+003,1.589708e+002
1.737761e+003,1.591293e+002
1.739689e+003,1.563689e+002
1.741618e+003,1.544531e+002
1.743546e+003,1.560462e+002
1.745475e+003,1.579064e+002
1.747403e+003,1.560492e+002
1.749332e+003,1.511795e+002
1.751260e+003,1.492045e+002
1.753189e+003,1.510534e+002
1.755117e+003,1.517753e+002
1.757046e+003,1.491740e+002
1.758974e+003,1.479052e+002
1.760902e+003,1.514155e+002
1.762831e+003,1.556045e+002
1.764759e+003,1.559738e+002
1.766688e+003,1.537069e+002
1.768616e+003,1.551360e+002
1.770545e+003,1.616561e+002
1.772473e+003,1.626840e+002
1.774402e+003,1.515174e+002
1.776330e+003,1.437560e+002
1.778259e+003,1.489655e+002
1.780187e+003,1.568340e+002
1.782116e+003,1.594721e+002
1.784044e+003,1.583098e+002
1.785973e+003,1.566620e+002
1.787901e+003,1.544893e+002
1.789829e+003,1.547325e+002
1.791758e+003,1.592879e+002
1.793686e+003,1.627874e+002
1.795615e+003,1.629123e+002
1.797543e+003,1.618617e+002
1.799472e+003,1.608737e+002
1.801400e+003,1.599199e+002
1.803329e+003,1.586771e+002
1.805257e+003,1.571724e+002
1.807186e+003,1.571771e+002
1.809114e+003,1.598186e+002
1.811043e+003,1.610231e+002
1.812971e+003,1.587696e+002
1.814900e+003,1.558459e+002
1.816828e+003,1.524306e+002
1.818756e+003,1.500844e+002
1.820685e+003,1.527308e+002
1.822613e+003,1.592579e+002
1.824542e+003,1.597626e+002
1.826470e+003,1.508872e+002
1.828399e+003,1.469757e+002
1.830327e+003,1.557219e+002
1.832256e+003,1.625636e+002
1.834184e+003,1.611347e+002
1.836113e+003,1.564904e+002
1.838041e+003,1.528323e+002
1.839970e+003,1.500551e+002
1.841898e+003,1.474197e+002
1.843827e+003,1.441186e+002
1.845755e+003,1.442033e+002
1.847684e+003,1.518597e+002
1.849612e+003,1.566971e+002
1.851541e+003,1.537421e+002
1.853469e+003,1.506579e+002
1.855397e+003,1.530076e+002
1.857326e+003,1.577559e+002
1.859254e+003,1.602638e+002
1.861183e+003,1.605019e+002
1.863111e+003,1.584620e+002
1.865040e+003,1.520332e+002
1.866968e+003,1.481377e+002
1.868897e+003,1.491089e+002
1.870825e+003,1.502733e+002
1.872754e+003,1.490238e+002
1.874682e+003,1.485953e+002
1.876611e+003,1.530525e+002
1.878539e+003,1.602587e+002
1.880468e+003,1.640791e+002
1.882396e+003,1.644289e+002
1.884324e+003,1.621707e+002
1.886253e+003,1.551787e+002
1.888181e+003,1.519482e+002
1.890110e+003,1.574410e+002
1.892038e+003,1.628470e+002
1.893967e+003,1.629077e+002
1.895895e+003,1.612534e+002
1.897824e+003,1.624102e+002
1.899752e+003,1.648810e+002
1.901681e+003,1.629719e+002
1.903609e+003,1.562008e+002
1.905538e+003,1.525384e+002
1.907466e+003,1.536054e+002
1.909395e+003,1.562173e+002
1.911323e+003,1.607988e+002
1.913251e+003,1.650906e+002
1.915180e+003,1.683322e+002
1.917108e+003,1.702325e+002
1.919037e+003,1.697167e+002
1.920965e+003,1.672884e+002
1.922894e+003,1.662171e+002
1.924822e+003,1.668177e+002
1.926751e+003,1.675720e+002
1.928679e+003,1.698207e+002
1.930608e+003,1.702082e+002
1.932536e+003,1.656596e+002
1.934465e+003,1.619604e+002
1.936393e+003,1.644554e+002
1.938322e+003,1.682460e+002
1.940250e+003,1.645397e+002
1.942178e+003,1.552172e+002
1.944107e+003,1.553530e+002
1.946035e+003,1.686299e+002
1.947964e+003,1.759754e+002
1.949892e+003,1.743547e+002
1.951821e+003,1.709851e+002
1.953749e+003,1.650802e+002
1.955678e+003,1.609485e+002
1.957606e+003,1.620938e+002
1.959535e+003,1.648774e+002
1.961463e+003,1.652948e+002
1.963392e+003,1.639468e+002
1.965320e+003,1.621459e+002
1.967249e+003,1.598740e+002
1.969177e+003,1.611654e+002
1.971105e+003,1.682150e+002
1.973034e+003,1.730372e+002
1.974962e+003,1.731227e+002
1.976891e+003,1.713563e+002
1.978819e+003,1.666052e+002
1.980748e+003,1.628059e+002
1.982676e+003,1.647022e+002
1.984605e+003,1.699879e+002
1.986533e+003,1.733166e+002
1.988462e+003,1.745943e+002
1.990390e+003,1.748609e+002
1.992319e+003,1.730990e+002
1.994247e+003,1.721594e+002
1.996176e+003,1.728369e+002
1.998104e+003,1.733733e+002
2.000032e+003,1.730676e+002
2.001961e+003,1.728024e+002
2.003889e+003,1.739061e+002
2.005818e+003,1.748269e+002
2.007746e+003,1.720896e+002
2.009675e+003,1.667311e+002
2.011603e+003,1.661033e+002
2.013532e+003,1.707419e+002
2.015460e+003,1.738791e+002
2.017389e+003,1.747557e+002
2.019317e+003,1.745156e+002
2.021246e+003,1.718549e+002
2.023174e+003,1.708835e+002
2.025103e+003,1.758219e+002
2.027031e+003,1.811112e+002
2.028959e+003,1.817973e+002
2.030888e+003,1.795140e+002
2.032816e+003,1.770397e+002
2.034745e+003,1.744077e+002
2.036673e+003,1.722700e+002
2.038602e+003,1.707474e+002
2.040530e+003,1.694728e+002
2.042459e+003,1.668789e+002
2.044387e+003,1.670206e+002
2.046316e+003,1.736341e+002
2.048244e+003,1.791753e+002
2.050173e+003,1.805601e+002
2.052101e+003,1.789652e+002
2.054030e+003,1.726801e+002
2.055958e+003,1.652420e+002
2.057886e+003,1.662009e+002
2.059815e+003,1.746051e+002
2.061743e+003,1.808070e+002
2.063672e+003,1.845517e+002
2.065600e+003,1.841741e+002
2.067529e+003,1.769917e+002
2.069457e+003,1.724610e+002
2.071386e+003,1.745076e+002
2.073314e+003,1.783112e+002
2.075243e+003,1.819413e+002
2.077171e+003,1.859852e+002
2.079100e+003,1.926344e+002
2.081028e+003,1.993691e+002
2.082957e+003,2.011193e+002
2.084885e+003,1.980782e+002
2.086813e+003,1.925768e+002
2.088742e+003,1.826934e+002
2.090670e+003,1.758861e+002
2.092599e+003,1.726313e+002
2.094527e+003,1.714316e+002
2.096456e+003,1.723659e+002
2.098384e+003,1.749707e+002
2.100313e+003,1.826722e+002
2.102241e+003,1.881278e+002
2.104170e+003,1.846583e+002
2.106098e+003,1.775720e+002
2.108027e+003,1.725724e+002
2.109955e+003,1.697125e+002
2.111884e+003,1.700433e+002
2.113812e+003,1.735128e+002
2.115740e+003,1.741120e+002
2.117669e+003,1.695454e+002
2.119597e+003,1.685693e+002
2.121526e+003,1.748973e+002
2.123454e+003,1.807716e+002
2.125383e+003,1.869591e+002
2.127311e+003,1.892182e+002
2.129240e+003,1.813254e+002
2.131168e+003,1.725065e+002
2.133097e+003,1.712872e+002
2.135025e+003,1.746841e+002
2.136954e+003,1.779604e+002
2.138882e+003,1.810875e+002
2.140811e+003,1.840221e+002
2.142739e+003,1.868152e+002
2.144667e+003,1.886190e+002
2.146596e+003,1.893437e+002
2.148524e+003,1.892510e+002
2.150453e+003,1.880266e+002
2.152381e+003,1.866057e+002
2.154310e+003,1.850586e+002
2.156238e+003,1.835964e+002
2.158167e+003,1.821019e+002
2.160095e+003,1.809977e+002
2.162024e+003,1.803403e+002
2.163952e+003,1.805832e+002
2.165881e+003,1.833360e+002
2.167809e+003,1.878390e+002
2.169738e+003,1.898518e+002
2.171666e+003,1.893219e+002
2.173594e+003,1.854744e+002
2.175523e+003,1.770542e+002
2.177451e+003,1.727155e+002
2.179380e+003,1.748762e+002
2.181308e+003,1.783418e+002
2.183237e+003,1.837802e+002
2.185165e+003,1.871636e+002
2.187094e+003,1.850089e+002
2.189022e+003,1.823285e+002
2.190951e+003,1.833701e+002
2.192879e+003,1.854145e+002
2.194808e+003,1.840078e+002
2.196736e+003,1.809444e+002
2.198665e+003,1.819341e+002
2.200593e+003,1.867481e+002
2.202521e+003,1.889521e+002
2.204450e+003,1.883160e+002
2.206378e+003,1.876340e+002
2.208307e+003,1.872392e+002
2.210235e+003,1.865198e+002
2.212164e+003,1.852625e+002
2.214092e+003,1.840872e+002
2.216021e+003,1.823548e+002
2.217949e+003,1.819380e+002
2.219878e+003,1.851142e+002
2.221806e+003,1.883456e+002
2.223735e+003,1.877327e+002
2.225663e+003,1.863284e+002
2.227592e+003,1.891432e+002
2.229520e+003,1.941330e+002
2.231448e+003,1.957892e+002
2.233377e+003,1.943596e+002
2.235305e+003,1.908794e+002
2.237234e+003,1.853180e+002
2.239162e+003,1.862984e+002
2.241091e+003,1.971324e+002
2.243019e+003,1.993945e+002
2.244948e+003,1.834241e+002
2.246876e+003,1.732282e+002
2.248805e+003,1.800269e+002
2.250733e+003,1.866169e+002
2.252662e+003,1.856681e+002
2.254590e+003,1.833999e+002
2.256519e+003,1.854671e+002
2.258447e+003,1.865123e+002
2.260375e+003,1.774401e+002
2.262304e+003,1.661565e+002
2.264232e+003,1.687115e+002
2.266161e+003,1.797818e+002
2.268089e+003,1.810991e+002
2.270018e+003,1.742672e+002
2.271946e+003,1.774069e+002
2.273875e+003,1.932408e+002
2.275803e+003,2.001170e+002
2.277732e+003,1.916834e+002
2.279660e+003,1.855200e+002
2.281589e+003,1.835151e+002
2.283517e+003,1.831579e+002
2.285446e+003,1.843028e+002
2.287374e+003,1.867210e+002
2.289302e+003,1.927565e+002
2.291231e+003,1.969210e+002
2.293159e+003,1.936825e+002
2.295088e+003,1.898646e+002
2.297016e+003,1.927642e+002
2.298945e+003,1.975191e+002
2.300873e+003,1.972726e+002
2.302802e+003,1.937993e+002
2.304730e+003,1.919953e+002
2.306659e+003,1.912903e+002
2.308587e+003,1.858077e+002
2.310516e+003,1.740058e+002
2.312444e+003,1.713083e+002
2.314373e+003,1.795365e+002
2.316301e+003,1.862434e+002
2.318229e+003,1.904096e+002
2.320158e+003,1.932350e+002
2.322086e+003,1.950650e+002
2.324015e+003,1.954801e+002
2.325943e+003,1.941257e+002
2.327872e+003,1.916766e+002
2.329800e+003,1.855360e+002
2.331729e+003,1.818959e+002
2.333657e+003,1.862513e+002
2.335586e+003,1.925630e+002
2.337514e+003,1.960941e+002
2.339443e+003,1.981361e+002
2.341371e+003,2.013195e+002
2.343300e+003,2.036704e+002
2.345228e+003,2.002811e+002
2.347156e+003,1.931195e+002
2.349085e+003,1.879345e+002
2.351013e+003,1.848556e+002
2.352942e+003,1.836051e+002
2.354870e+003,1.840951e+002
2.356799e+003,1.877232e+002
2.358727e+003,1.980435e+002
2.360656e+003,2.007201e+002
2.362584e+003,1.912958e+002
2.364513e+003,1.862880e+002
2.366441e+003,1.895774e+002
2.368370e+003,1.936046e+002
2.370298e+003,1.973420e+002
2.372227e+003,1.992464e+002
2.374155e+003,1.969523e+002
2.376083e+003,1.950081e+002
2.378012e+003,1.971071e+002
2.379940e+003,1.988238e+002
2.381869e+003,1.963645e+002
2.383797e+003,1.925647e+002
2.385726e+003,1.883899e+002
2.387654e+003,1.861329e+002
2.389583e+003,1.924083e+002
2.391511e+003,2.013819e+002
2.393440e+003,1.998694e+002
2.395368e+003,1.910784e+002
2.397297e+003,1.862782e+002
2.399225e+003,1.853005e+002
2.401154e+003,1.860305e+002
2.403082e+003,1.886266e+002
2.405010e+003,1.918348e+002
2.406939e+003,1.964772e+002
2.408867e+003,1.969886e+002
2.410796e+003,1.919573e+002
2.412724e+003,1.885080e+002
2.414653e+003,1.872001e+002
2.416581e+003,1.895207e+002
2.418510e+003,1.994541e+002
2.420438e+003,2.057751e+002
2.422367e+003,2.026356e+002
2.424295e+003,1.993245e+002
2.426224e+003,1.990654e+002
2.428152e+003,1.991875e+002
2.430081e+003,1.988116e+002
2.432009e+003,1.982253e+002
2.433938e+003,1.967494e+002
2.435866e+003,1.962954e+002
2.437794e+003,2.007343e+002
2.439723e+003,2.047875e+002
2.441651e+003,2.003286e+002
2.443580e+003,1.933082e+002
2.445508e+003,1.928719e+002
2.447437e+003,1.968416e+002
2.449365e+003,2.021724e+002
2.451294e+003,2.074219e+002
2.453222e+003,2.063049e+002
2.455151e+003,2.003369e+002
2.457079e+003,1.966777e+002
2.459008e+003,1.952750e+002
2.460936e+003,1.914232e+002
2.462865e+003,1.837685e+002
2.464793e+003,1.854480e+002
2.466721e+003,2.026151e+002
2.468650e+003,2.081938e+002
2.470578e+003,1.981207e+002
2.472507e+003,1.924670e+002
2.474435e+003,1.936546e+002
2.476364e+003,1.971447e+002
2.478292e+003,2.040248e+002
2.480221e+003,2.074075e+002
2.482149e+003,2.021835e+002
2.484078e+003,1.989292e+002
2.486006e+003,2.013246e+002
2.487935e+003,2.041838e+002
2.489863e+003,2.090324e+002
2.491792e+003,2.093346e+002
2.493720e+003,1.981939e+002
2.495648e+003,1.887114e+002
2.497577e+003,1.901664e+002
2.499505e+003,1.929277e+002
2.501434e+003,1.905396e+002
2.503362e+003,1.870069e+002
2.505291e+003,1.855616e+002
2.507219e+003,1.848444e+002
2.509148e+003,1.807762e+002
2.511076e+003,1.790369e+002
2.513005e+003,1.917060e+002
2.514933e+003,2.073487e+002
2.516862e+003,2.077457e+002
2.518790e+003,2.003138e+002
2.520719e+003,1.982231e+002
2.522647e+003,1.997279e+002
2.524575e+003,2.000927e+002
2.526504e+003,1.999803e+002
2.528432e+003,2.022144e+002
2.530361e+003,2.064882e+002
2.532289e+003,2.125644e+002
2.534218e+003,2.193202e+002
2.536146e+003,2.196726e+002
2.538075e+003,2.133946e+002
2.540003e+003,2.033215e+002
2.541932e+003,1.879921e+002
2.543860e+003,1.837298e+002
2.545789e+003,1.927663e+002
2.547717e+003,1.987637e+002
2.549646e+003,2.012813e+002
2.551574e+003,2.005197e+002
2.553502e+003,1.958364e+002
2.555431e+003,1.925767e+002
2.557359e+003,1.916664e+002
2.559288e+003,1.914499e+002
2.561216e+003,1.922776e+002
2.563145e+003,1.924384e+002
2.565073e+003,1.901448e+002
2.567002e+003,1.926187e+002
2.568930e+003,2.042102e+002
2.570859e+003,2.106115e+002
2.572787e+003,2.049315e+002
2.574716e+003,2.008443e+002
2.576644e+003,2.032818e+002
2.578573e+003,2.058158e+002
2.580501e+003,2.061750e+002
2.582429e+003,2.073873e+002
2.584358e+003,2.118688e+002
2.586287e+003,2.141036e+002
2.588215e+003,2.102408e+002
2.590144e+003,2.068608e+002
2.592072e+003,2.070254e+002
2.594000e+003,2.085454e+002
2.595929e+003,2.104180e+002
2.597857e+003,2.133055e+002
2.599786e+003,2.201934e+002
2.601714e+003,2.245426e+002
2.603643e+003,2.211594e+002
2.605571e+003,2.163026e+002
2.607500e+003,2.145648e+002
2.609428e+003,2.123914e+002
2.611357e+003,2.051987e+002
2.613285e+003,1.988915e+002
2.615214e+003,1.993452e+002
2.617142e+003,2.017414e+002
2.619071e+003,2.022393e+002
2.620999e+003,2.023627e+002
2.622927e+003,2.031887e+002
2.624856e+003,2.045358e+002
2.626784e+003,2.065826e+002
2.628713e+003,2.087056e+002
2.630641e+003,2.098774e+002
2.632570e+003,2.110677e+002
2.634498e+003,2.137773e+002
2.636427e+003,2.169434e+002
2.638355e+003,2.193517e+002
2.640284e+003,2.213115e+002
2.642212e+003,2.247137e+002
2.644141e+003,2.266158e+002
2.646069e+003,2.201348e+002
2.647998e+003,2.110412e+002
2.649926e+003,2.092044e+002
2.651854e+003,2.110053e+002
2.653783e+003,2.111188e+002
2.655711e+003,2.102793e+002
2.657640e+003,2.085811e+002
2.659568e+003,2.075560e+002
2.661497e+003,2.120602e+002
2.663425e+003,2.180805e+002
2.665354e+003,2.154795e+002
2.667282e+003,2.092405e+002
2.669211e+003,2.102663e+002
2.671139e+003,2.153405e+002
2.673068e+003,2.187975e+002
2.674996e+003,2.210723e+002
2.676925e+003,2.241407e+002
2.678853e+003,2.263761e+002
2.680781e+003,2.221173e+002
2.682710e+003,2.148704e+002
2.684638e+003,2.138285e+002
2.686567e+003,2.160078e+002
2.688495e+003,2.142067e+002
2.690424e+003,2.108471e+002
2.692352e+003,2.117151e+002
2.694281e+003,2.156524e+002
2.696209e+003,2.211897e+002
2.698138e+003,2.266796e+002
2.700066e+003,2.263287e+002
2.701995e+003,2.232356e+002
2.703923e+003,2.239795e+002
2.705852e+003,2.275289e+002
2.707780e+003,2.339586e+002
2.709708e+003,2.399751e+002
2.711637e+003,2.332970e+002
2.713565e+003,2.219418e+002
2.715494e+003,2.284650e+002
2.717422e+003,2.428062e+002
2.719351e+003,2.427107e+002
2.721279e+003,2.362359e+002
2.723208e+003,2.422101e+002
2.725136e+003,2.540549e+002
2.727065e+003,2.590341e+002
2.728993e+003,2.581985e+002
2.730922e+003,2.496510e+002
2.732850e+003,2.392442e+002
2.734779e+003,2.383091e+002
2.736707e+003,2.419053e+002
2.738635e+003,2.411486e+002
2.740564e+003,2.382800e+002
2.742492e+003,2.372812e+002
2.744421e+003,2.370350e+002
2.746349e+003,2.359329e+002
2.748278e+003,2.344248e+002
2.750206e+003,2.340970e+002
2.752135e+003,2.328496e+002
2.754063e+003,2.250679e+002
2.755992e+003,2.167661e+002
2.757920e+003,2.154342e+002
2.759849e+003,2.190000e+002
2.761777e+003,2.304387e+002
2.763706e+003,2.400208e+002
2.765634e+003,2.343778e+002
2.767563e+003,2.236073e+002
2.769491e+003,2.150802e+002
2.771419e+003,2.107975e+002
2.773348e+003,2.149323e+002
2.775276e+003,2.209493e+002
2.777205e+003,2.219806e+002
2.779133e+003,2.236891e+002
2.781062e+003,2.339780e+002
2.782990e+003,2.430749e+002
2.784919e+003,2.415655e+002
2.786847e+003,2.384036e+002
2.788776e+003,2.376407e+002
2.790704e+003,2.393170e+002
2.792633e+003,2.479573e+002
2.794561e+003,2.528429e+002
2.796490e+003,2.418725e+002
2.798418e+003,2.350398e+002
2.800346e+003,2.450179e+002
2.802275e+003,2.537549e+002
2.804203e+003,2.508171e+002
2.806132e+003,2.473014e+002
2.808060e+003,2.466417e+002
2.809989e+003,2.476096e+002
2.811917e+003,2.512152e+002
2.813846e+003,2.528125e+002
2.815774e+003,2.492093e+002
2.817703e+003,2.478105e+002
2.819631e+003,2.527780e+002
2.821560e+003,2.571846e+002
2.823488e+003,2.618141e+002
2.825417e+003,2.606713e+002
2.827345e+003,2.502296e+002
2.829273e+003,2.457444e+002
2.831202e+003,2.522330e+002
2.833130e+003,2.579840e+002
2.835059e+003,2.603227e+002
2.836987e+003,2.653697e+002
2.838916e+003,2.741300e+002
2.840844e+003,2.775739e+002
2.842773e+003,2.741353e+002
2.844701e+003,2.759571e+002
2.846630e+003,2.851728e+002
2.848558e+003,2.920987e+002
2.850487e+003,2.967632e+002
2.852415e+003,3.007120e+002
2.854344e+003,3.038591e+002
2.856272e+003,3.048073e+002
2.858200e+003,3.035120e+002
2.860129e+003,2.987571e+002
2.862057e+003,2.919911e+002
2.863986e+003,2.935982e+002
2.865914e+003,3.000494e+002
2.867843e+003,2.996275e+002
2.869771e+003,2.947350e+002
2.871700e+003,2.887553e+002
2.873628e+003,2.840218e+002
2.875557e+003,2.857511e+002
2.877485e+003,2.912023e+002
2.879414e+003,2.991380e+002
2.881342e+003,3.053247e+002
2.883271e+003,3.012878e+002
2.885199e+003,2.974876e+002
2.887127e+003,3.068268e+002
2.889056e+003,3.181898e+002
2.890984e+003,3.222727e+002
2.892913e+003,3.254685e+002
2.894841e+003,3.287592e+002
2.896770e+003,3.365414e+002
2.898698e+003,3.567481e+002
2.900627e+003,3.728752e+002
2.902555e+003,3.762030e+002
2.904484e+003,3.797276e+002
2.906412e+003,3.862137e+002
2.908341e+003,3.966380e+002
2.910269e+003,4.100197e+002
2.912198e+003,4.292988e+002
2.914126e+003,4.497387e+002
2.916054e+003,4.901834e+002
2.917983e+003,5.491568e+002
2.919911e+003,6.560129e+002
2.921840e+003,8.290088e+002
2.923768e+003,1.007113e+003
2.925697e+003,1.202745e+003
2.927625e+003,1.258925e+003
2.929554e+003,1.180281e+003
2.931482e+003,1.032173e+003
2.933411e+003,8.321192e+002
2.935339e+003,6.735073e+002
2.937268e+003,5.573127e+002
2.939196e+003,4.995786e+002
2.941125e+003,4.852336e+002
2.943053e+003,4.833952e+002
2.944981e+003,4.947215e+002
2.946910e+003,5.199547e+002
2.948838e+003,5.608702e+002
2.950767e+003,6.128889e+002
2.952695e+003,6.912385e+002
2.954624e+003,7.822371e+002
2.956552e+003,9.394302e+002
2.958481e+003,1.247265e+003
2.960409e+003,1.568336e+003
2.962338e+003,1.956519e+003
2.964266e+003,2.111980e+003
2.966195e+003,1.860865e+003
2.968123e+003,1.523908e+003
2.970052e+003,1.117801e+003
2.971980e+003,8.123030e+002
2.973908e+003,6.319598e+002
2.975837e+003,5.316054e+002
2.977765e+003,5.105197e+002
2.979694e+003,5.466301e+002
2.981622e+003,6.580706e+002
2.983551e+003,7.156905e+002
2.985479e+003,7.190377e+002
2.987408e+003,6.721703e+002
2.989336e+003,5.850906e+002
2.991265e+003,5.033933e+002
2.993193e+003,4.317526e+002
2.995122e+003,3.827302e+002
2.997050e+003,3.533835e+002
2.998979e+003,3.386177e+002
3.000907e+003,3.390436e+002
3.002835e+003,3.603228e+002
3.004764e+003,3.904390e+002
3.006692e+003,4.281436e+002
3.008621e+003,4.546862e+002
3.010549e+003,4.588728e+002
3.012478e+003,4.476360e+002
3.014406e+003,4.179130e+002
3.016335e+003,3.846091e+002
3.018263e+003,3.439033e+002
3.020192e+003,3.191805e+002
3.022120e+003,3.185651e+002
3.024049e+003,3.122695e+002
3.025977e+003,2.907632e+002
3.027906e+003,2.824889e+002
3.029834e+003,2.911510e+002
3.031762e+003,2.893670e+002
3.033691e+003,2.787813e+002
3.035619e+003,2.819402e+002
3.037548e+003,2.947013e+002
3.039476e+003,2.943608e+002
3.041405e+003,2.880741e+002
3.043333e+003,2.956844e+002
3.045262e+003,3.076690e+002
3.047190e+003,3.114192e+002
3.049119e+003,3.117044e+002
3.051047e+003,3.128464e+002
3.052976e+003,3.128148e+002
3.054904e+003,3.105849e+002
3.056833e+003,3.064463e+002
3.058761e+003,2.973064e+002
3.060689e+003,2.925838e+002
3.062618e+003,2.958374e+002
3.064546e+003,3.025442e+002
3.066475e+003,3.136746e+002
3.068403e+003,3.196729e+002
3.070332e+003,3.181771e+002
3.072260e+003,3.164926e+002
3.074189e+003,3.144581e+002
3.076117e+003,3.096448e+002
3.078046e+003,3.030625e+002
3.079974e+003,2.994446e+002
3.081903e+003,2.975880e+002
3.083831e+003,2.940022e+002
3.085760e+003,2.914054e+002
3.087688e+003,2.969254e+002
3.089616e+003,3.008313e+002
3.091545e+003,2.928634e+002
3.093473e+003,2.839653e+002
3.095402e+003,2.806501e+002
3.097330e+003,2.773105e+002
3.099259e+003,2.717234e+002
3.101187e+003,2.674384e+002
3.103116e+003,2.653037e+002
3.105044e+003,2.654070e+002
3.106973e+003,2.683577e+002
3.108901e+003,2.648378e+002
3.110830e+003,2.552112e+002
3.112758e+003,2.564994e+002
3.114687e+003,2.650319e+002
3.116615e+003,2.598059e+002
3.118543e+003,2.485604e+002
3.120472e+003,2.476945e+002
3.122400e+003,2.499343e+002
3.124329e+003,2.465190e+002
3.126257e+003,2.427741e+002
3.128186e+003,2.432642e+002
3.130114e+003,2.438562e+002
3.132043e+003,2.438797e+002
3.133971e+003,2.415335e+002
3.135900e+003,2.331159e+002
3.137828e+003,2.318047e+002
3.139757e+003,2.398716e+002
3.141685e+003,2.432330e+002
3.143614e+003,2.400958e+002
3.145542e+003,2.375001e+002
3.147470e+003,2.358307e+002
3.149399e+003,2.392339e+002
3.151327e+003,2.446868e+002
3.153256e+003,2.470563e+002
3.155184e+003,2.465520e+002
3.157113e+003,2.412526e+002
3.159041e+003,2.360144e+002
3.160970e+003,2.356871e+002
3.162898e+003,2.335066e+002
3.164827e+003,2.223755e+002
3.166755e+003,2.171052e+002
3.168684e+003,2.213505e+002
3.170612e+003,2.259654e+002
3.172541e+003,2.301225e+002
3.174469e+003,2.318787e+002
3.176397e+003,2.312842e+002
3.178326e+003,2.267757e+002
3.180254e+003,2.207585e+002
3.182183e+003,2.218683e+002
3.184111e+003,2.248784e+002
3.186040e+003,2.213922e+002
3.187968e+003,2.154853e+002
3.189897e+003,2.064039e+002
3.191825e+003,2.035155e+002
3.193754e+003,2.199369e+002
3.195682e+003,2.276408e+002
3.197611e+003,2.174646e+002
3.199539e+003,2.123005e+002
3.201468e+003,2.160363e+002
3.203396e+003,2.227792e+002
3.205324e+003,2.320705e+002
3.207253e+003,2.329409e+002
3.209181e+003,2.275251e+002
3.211110e+003,2.191441e+002
3.213038e+003,2.127430e+002
3.214967e+003,2.195290e+002
3.216895e+003,2.272888e+002
3.218824e+003,2.278929e+002
3.220752e+003,2.237405e+002
3.222681e+003,2.078826e+002
3.224609e+003,2.045451e+002
3.226538e+003,2.217018e+002
3.228466e+003,2.310206e+002
3.230395e+003,2.280728e+002
3.232323e+003,2.266409e+002
3.234251e+003,2.263830e+002
3.236180e+003,2.169930e+002
3.238108e+003,2.052416e+002
3.240037e+003,2.046907e+002
3.241965e+003,2.102121e+002
3.243894e+003,2.214414e+002
3.245822e+003,2.274515e+002
3.247751e+003,2.146005e+002
3.249679e+003,2.115895e+002
3.251608e+003,2.426499e+002
3.253536e+003,2.533203e+002
3.255465e+003,2.377077e+002
3.257393e+003,2.246711e+002
3.259322e+003,2.165793e+002
3.261250e+003,2.150008e+002
3.263178e+003,2.164411e+002
3.265107e+003,2.076081e+002
3.267035e+003,1.976491e+002
3.268964e+003,1.983452e+002
3.270892e+003,2.016349e+002
3.272821e+003,2.033000e+002
3.274749e+003,2.035004e+002
3.276678e+003,2.007448e+002
3.278606e+003,2.014765e+002
3.280535e+003,2.077210e+002
3.282463e+003,2.107096e+002
3.284392e+003,2.105245e+002
3.286320e+003,2.110853e+002
3.288249e+003,2.108576e+002
3.290177e+003,2.030057e+002
3.292105e+003,1.947656e+002
3.294034e+003,1.934093e+002
3.295962e+003,1.957560e+002
3.297891e+003,2.036788e+002
3.299819e+003,2.071007e+002
3.301748e+003,2.023342e+002
3.303676e+003,2.006639e+002
3.305605e+003,2.051374e+002
3.307533e+003,2.025930e+002
3.309462e+003,1.949328e+002
3.311390e+003,1.951812e+002
3.313319e+003,1.985832e+002
3.315247e+003,1.954375e+002
3.317176e+003,1.928801e+002
3.319104e+003,2.000100e+002
3.321032e+003,2.042470e+002
3.322961e+003,1.960252e+002
3.324889e+003,1.921454e+002
3.326818e+003,1.952362e+002
3.328746e+003,1.990174e+002
3.330675e+003,2.029268e+002
3.332603e+003,2.073743e+002
3.334532e+003,2.104118e+002
3.336460e+003,2.019041e+002
3.338389e+003,1.939370e+002
3.340317e+003,2.044829e+002
3.342246e+003,2.123537e+002
3.344174e+003,2.029017e+002
3.346103e+003,1.959265e+002
3.348031e+003,1.964575e+002
3.349959e+003,1.967407e+002
3.351888e+003,1.959572e+002
3.353816e+003,1.988470e+002
3.355745e+003,2.030090e+002
3.357673e+003,1.999330e+002
3.359602e+003,1.952001e+002
3.361530e+003,1.972148e+002
3.363459e+003,1.994552e+002
3.365387e+003,1.966716e+002
3.367316e+003,1.965636e+002
3.369244e+003,2.031847e+002
3.371173e+003,2.038388e+002
3.373101e+003,1.980765e+002
3.375030e+003,1.970737e+002
3.376958e+003,2.000458e+002
3.378886e+003,2.066076e+002
3.380815e+003,2.106412e+002
3.382743e+003,2.018629e+002
3.384672e+003,1.933189e+002
3.386600e+003,1.929812e+002
3.388529e+003,1.951684e+002
3.390457e+003,2.000622e+002
3.392386e+003,1.993220e+002
3.394314e+003,1.922439e+002
3.396243e+003,1.953494e+002
3.398171e+003,2.033681e+002
3.400100e+003,2.040805e+002
3.402028e+003,2.009263e+002
3.403957e+003,1.950540e+002
3.405885e+003,1.912956e+002
3.407813e+003,1.923787e+002
3.409742e+003,1.948311e+002
3.411670e+003,1.990234e+002
3.413599e+003,1.961149e+002
3.415527e+003,1.885615e+002
3.417456e+003,1.969611e+002
3.419384e+003,2.102766e+002
3.421313e+003,2.046253e+002
3.423241e+003,1.963443e+002
3.425170e+003,1.973263e+002
3.427098e+003,1.992341e+002
3.429027e+003,1.989903e+002
3.430955e+003,2.026944e+002
3.432884e+003,2.111111e+002
3.434812e+003,2.130514e+002
3.436740e+003,2.105353e+002
3.438669e+003,2.132094e+002
3.440597e+003,2.143447e+002
3.442526e+003,2.010076e+002
3.444454e+003,1.936465e+002
3.446383e+003,2.041312e+002
3.448311e+003,2.117639e+002
3.450240e+003,2.106707e+002
3.452168e+003,2.150177e+002
3.454097e+003,2.225340e+002
3.456025e+003,2.122234e+002
3.457954e+003,1.985450e+002
3.459882e+003,2.067829e+002
3.461811e+003,2.165756e+002
3.463739e+003,2.165886e+002
3.465667e+003,2.140594e+002
3.467596e+003,2.111097e+002
3.469524e+003,2.039141e+002
3.471453e+003,1.939120e+002
3.473381e+003,1.956784e+002
3.475310e+003,2.043698e+002
3.477238e+003,2.156591e+002
3.479167e+003,2.205677e+002
3.481095e+003,2.083696e+002
3.483024e+003,1.963471e+002
3.484952e+003,1.878464e+002
3.486881e+003,1.886349e+002
3.488809e+003,1.980281e+002
3.490738e+003,1.956547e+002
3.492666e+003,1.884114e+002
3.494594e+003,1.979592e+002
3.496523e+003,2.068472e+002
3.498451e+003,1.963412e+002
3.500380e+003,1.904124e+002
3.502308e+003,1.968669e+002
3.504237e+003,1.995456e+002
3.506165e+003,1.964293e+002
3.508094e+003,2.017939e+002
3.510022e+003,2.103755e+002
3.511951e+003,2.076273e+002
3.513879e+003,2.036944e+002
3.515808e+003,2.099357e+002
3.517736e+003,2.120511e+002
3.519665e+003,2.050854e+002
3.521593e+003,2.005910e+002
3.523521e+003,1.996578e+002
3.525450e+003,2.017776e+002
3.527378e+003,2.049846e+002
3.529307e+003,2.051125e+002
3.531235e+003,2.048086e+002
3.533164e+003,2.064201e+002
3.535092e+003,2.073962e+002
3.537021e+003,2.072334e+002
3.538949e+003,2.056350e+002
3.540878e+003,2.026676e+002
3.542806e+003,1.954581e+002
3.544735e+003,1.895495e+002
3.546663e+003,1.984504e+002
3.548592e+003,2.055284e+002
3.550520e+003,1.988993e+002
3.552448e+003,1.954602e+002
3.554377e+003,2.000107e+002
3.556305e+003,2.011725e+002
3.558234e+003,2.002649e+002
3.560162e+003,2.068876e+002
3.562091e+003,2.125599e+002
3.564019e+003,2.011049e+002
3.565948e+003,1.941700e+002
3.567876e+003,2.103477e+002
3.569805e+003,2.101471e+002
3.571733e+003,1.911169e+002
3.573662e+003,1.915240e+002
3.575590e+003,2.025726e+002
3.577519e+003,1.963575e+002
3.579447e+003,1.890493e+002
3.581376e+003,1.955297e+002
3.583304e+003,2.015151e+002
3.585233e+003,2.036940e+002
3.587161e+003,2.003555e+002
3.589090e+003,1.928282e+002
3.591018e+003,1.935509e+002
3.592947e+003,1.986707e+002
3.594875e+003,2.058423e+002
3.596803e+003,2.084497e+002
3.598732e+003,1.984755e+002
3.600660e+003,1.931045e+002
3.602589e+003,1.940952e+002
3.604517e+003,1.996861e+002
3.606446e+003,2.029255e+002
3.608374e+003,1.690238e+002
3.610303e+003,1.419350e+002
3.612231e+003,1.694885e+002
3.614160e+003,1.917577e+002
3.616088e+003,1.942275e+002
3.618017e+003,1.980313e+002
3.619945e+003,2.036328e+002
3.621874e+003,1.985903e+002
3.623802e+003,1.911492e+002
3.625730e+003,1.910760e+002
3.627659e+003,1.938249e+002
3.629587e+003,1.988505e+002
3.631516e+003,1.998069e+002
3.633444e+003,1.959261e+002
3.635373e+003,1.987258e+002
3.637301e+003,2.041960e+002
3.639230e+003,2.034557e+002
3.641158e+003,2.025797e+002
3.643087e+003,2.086979e+002
3.645015e+003,2.078079e+002
3.646944e+003,1.974163e+002
3.648872e+003,1.919761e+002
3.650801e+003,1.912807e+002
3.652729e+003,1.962273e+002
3.654657e+003,2.001326e+002
3.656586e+003,1.954719e+002
3.658514e+003,1.914841e+002
3.660443e+003,1.898300e+002
3.662371e+003,1.940294e+002
3.664300e+003,2.021024e+002
3.666228e+003,2.034345e+002
3.668157e+003,2.030696e+002
3.670085e+003,2.080486e+002
3.672014e+003,2.089663e+002
3.673942e+003,2.029357e+002
3.675871e+003,1.938519e+002
3.677799e+003,1.841397e+002
3.679728e+003,1.933528e+002
3.681656e+003,2.065638e+002
3.683584e+003,2.046521e+002
3.685513e+003,2.026645e+002
3.687441e+003,2.065543e+002
3.689370e+003,2.070291e+002
3.691298e+003,2.033288e+002
3.693227e+003,1.971955e+002
3.695155e+003,1.927718e+002
3.697084e+003,1.971661e+002
3.699012e+003,2.016741e+002
3.700941e+003,2.034238e+002
3.702869e+003,2.005218e+002
3.704798e+003,1.935267e+002
3.706726e+003,1.919131e+002
3.708655e+003,1.962409e+002
3.710583e+003,2.136692e+002
3.712511e+003,2.222744e+002
3.714440e+003,2.082718e+002
3.716368e+003,2.056393e+002
3.718297e+003,2.164264e+002
3.720225e+003,2.144305e+002
3.722154e+003,2.059562e+002
3.724082e+003,1.966618e+002
3.726011e+003,1.924160e+002
3.727939e+003,1.975187e+002
3.729868e+003,1.999495e+002
3.731796e+003,1.987733e+002
3.733725e+003,1.976078e+002
3.735653e+003,1.953165e+002
3.737582e+003,1.868905e+002
3.739510e+003,1.846851e+002
3.741438e+003,1.964922e+002
3.743367e+003,1.980520e+002
3.745295e+003,1.904655e+002
3.747224e+003,1.980336e+002
3.749152e+003,2.076614e+002
3.751081e+003,2.053878e+002
3.753009e+003,1.973669e+002
3.754938e+003,1.824194e+002
3.756866e+003,1.848190e+002
3.758795e+003,1.996337e+002
3.760723e+003,1.963839e+002
3.762652e+003,1.894866e+002
3.764580e+003,1.936076e+002
3.766509e+003,1.942670e+002
3.768437e+003,1.867718e+002
3.770365e+003,1.942182e+002
3.772294e+003,2.087801e+002
3.774222e+003,2.009219e+002
3.776151e+003,1.911230e+002
3.778079e+003,1.953169e+002
3.780008e+003,1.980868e+002
3.781936e+003,1.971414e+002
3.783865e+003,1.890181e+002
3.785793e+003,1.807107e+002
3.787722e+003,1.890492e+002
3.789650e+003,1.986731e+002
3.791579e+003,2.020311e+002
3.793507e+003,2.036849e+002
3.795436e+003,2.043315e+002
3.797364e+003,2.065428e+002
3.799292e+003,2.079088e+002
3.801221e+003,2.045538e+002
3.803149e+003,1.997714e+002
3.805078e+003,1.945800e+002
3.807006e+003,1.864456e+002
3.808935e+003,1.778666e+002
3.810863e+003,1.803639e+002
3.812792e+003,1.869794e+002
3.814720e+003,1.960948e+002
3.816649e+003,1.948655e+002
3.818577e+003,1.767924e+002
3.820506e+003,1.807014e+002
3.822434e+003,1.946366e+002
3.824363e+003,1.936215e+002
3.826291e+003,1.898809e+002
3.828219e+003,1.890032e+002
3.830148e+003,1.903974e+002
3.832076e+003,1.935920e+002
3.834005e+003,1.933452e+002
3.835933e+003,1.924593e+002
3.837862e+003,1.943766e+002
3.839790e+003,1.960919e+002
3.841719e+003,1.967278e+002
3.843647e+003,2.010320e+002
3.845576e+003,2.053699e+002
3.847504e+003,1.943327e+002
3.849433e+003,1.828500e+002
3.851361e+003,1.807459e+002
3.853290e+003,1.804999e+002
3.855218e+003,1.816506e+002
3.857146e+003,1.890125e+002
3.859075e+003,1.968428e+002
3.861003e+003,1.972488e+002
3.862932e+003,1.954405e+002
3.864860e+003,1.930908e+002
3.866789e+003,1.873108e+002
3.868717e+003,1.814133e+002
3.870646e+003,1.857652e+002
3.872574e+003,1.940424e+002
3.874503e+003,2.065737e+002
3.876431e+003,2.028304e+002
3.878360e+003,1.827318e+002
3.880288e+003,1.789483e+002
3.882217e+003,1.842504e+002
3.884145e+003,1.976382e+002
3.886073e+003,1.995896e+002
3.888002e+003,1.814695e+002
3.889930e+003,1.745648e+002
3.891859e+003,1.768928e+002
3.893787e+003,1.839816e+002
3.895716e+003,1.890477e+002
3.897644e+003,1.873384e+002
3.899573e+003,1.888943e+002
3.901501e+003,1.941222e+002
3.903430e+003,1.988874e+002
3.905358e+003,1.999396e+002
3.907287e+003,1.883022e+002
3.909215e+003,1.875752e+002
3.911144e+003,2.011752e+002
3.913072e+003,2.107849e+002
3.915000e+003,2.117180e+002
3.916929e+003,1.883724e+002
3.918857e+003,1.724265e+002
3.920786e+003,1.797116e+002
3.922714e+003,1.850508e+002
3.924643e+003,1.878799e+002
3.926571e+003,1.894286e+002
3.928500e+003,1.899092e+002
3.930428e+003,1.896924e+002
3.932357e+003,1.871727e+002
3.934285e+003,1.830286e+002
3.936214e+003,1.852366e+002
3.938142e+003,1.873438e+002
3.940071e+003,1.802110e+002
3.941999e+003,1.779861e+002
3.943927e+003,1.843533e+002
3.945856e+003,1.825712e+002
3.947784e+003,1.784777e+002
3.949713e+003,1.813031e+002
3.951641e+003,1.845229e+002
3.953570e+003,1.864224e+002
3.955498e+003,1.851892e+002
3.957427e+003,1.824732e+002
3.959355e+003,1.811364e+002
3.961284e+003,1.828866e+002
3.963212e+003,1.914744e+002
3.965141e+003,1.924315e+002
3.967069e+003,1.874549e+002
3.968998e+003,1.869498e+002
3.970926e+003,1.878902e+002
3.972854e+003,1.889047e+002
3.974783e+003,1.874762e+002
3.976711e+003,1.842460e+002
3.978640e+003,1.863528e+002
3.980568e+003,1.891898e+002
3.982497e+003,1.877543e+002
3.984425e+003,1.879551e+002
3.986354e+003,1.909881e+002
3.988282e+003,1.935400e+002
3.990211e+003,1.948089e+002
3.992139e+003,1.946658e+002
3.994068e+003,1.901051e+002
3.995996e+003,1.804621e+002
3.997925e+003,1.733919e+002
3.999853e+003,1.715371e+002
4.001781e+003,1.846084e+002
4.003710e+003,1.895723e+002
4.005638e+003,1.787045e+002
4.007567e+003,1.708262e+002
4.009495e+003,1.687714e+002
4.011424e+003,1.827717e+002
4.013352e+003,1.932198e+002
4.015281e+003,1.898557e+002
4.017209e+003,1.831793e+002
4.019138e+003,1.767050e+002
4.021066e+003,1.818128e+002
4.022995e+003,1.836057e+002
4.024923e+003,1.744919e+002
4.026852e+003,1.693368e+002
4.028780e+003,1.690676e+002
4.030708e+003,1.738363e+002
4.032637e+003,1.810751e+002
4.034565e+003,1.915101e+002
4.036494e+003,1.908375e+002
4.038422e+003,1.826412e+002
4.040351e+003,1.877723e+002
4.042279e+003,1.931039e+002
4.044208e+003,1.884203e+002
4.046136e+003,1.873735e+002
4.048065e+003,1.892036e+002
4.049993e+003,1.877732e+002
4.051922e+003,1.847794e+002
4.053850e+003,1.806767e+002
4.055779e+003,1.792456e+002
4.057707e+003,1.799768e+002
4.059635e+003,1.784175e+002
4.061564e+003,1.768065e+002
4.063492e+003,1.759861e+002
4.065421e+003,1.791538e+002
4.067349e+003,1.851909e+002
4.069278e+003,1.853984e+002
4.071206e+003,1.855690e+002
4.073135e+003,1.925864e+002
4.075063e+003,1.924263e+002
4.076992e+003,1.853920e+002
4.078920e+003,1.762959e+002
4.080849e+003,1.694456e+002
4.082777e+003,1.670637e+002
4.084706e+003,1.706999e+002
4.086634e+003,1.776974e+002
4.088563e+003,1.767243e+002
4.090491e+003,1.763842e+002
4.092419e+003,1.824340e+002
4.094348e+003,1.842168e+002
4.096276e+003,1.825840e+002
4.098205e+003,1.869744e+002
4.100133e+003,1.868233e+002
4.102062e+003,1.739603e+002
4.103990e+003,1.636056e+002
4.105919e+003,1.591003e+002
4.107847e+003,1.747452e+002
4.109776e+003,1.853876e+002
4.111704e+003,1.720426e+002
4.113633e+003,1.684169e+002
4.115561e+003,1.705579e+002
4.117490e+003,1.645705e+002
4.119418e+003,1.651228e+002
4.121347e+003,1.789370e+002
4.123275e+003,1.895082e+002
4.125204e+003,1.923903e+002
4.127132e+003,1.728788e+002
4.129061e+003,1.655252e+002
4.130989e+003,1.799257e+002
4.132917e+003,1.800961e+002
4.134846e+003,1.738891e+002
4.136774e+003,1.752655e+002
4.138703e+003,1.776340e+002
4.140631e+003,1.793858e+002
4.142560e+003,1.784918e+002
4.144488e+003,1.765203e+002
4.146417e+003,1.747613e+002
4.148345e+003,1.741792e+002
4.150273e+003,1.749886e+002
4.152202e+003,1.766791e+002
4.154130e+003,1.787545e+002
4.156059e+003,1.820808e+002
4.157987e+003,1.811066e+002
4.159916e+003,1.763280e+002
4.161844e+003,1.745442e+002
4.163773e+003,1.731540e+002
4.165701e+003,1.685436e+002
4.167630e+003,1.724046e+002
4.169558e+003,1.806937e+002
4.171487e+003,1.799883e+002
4.173415e+003,1.770386e+002
4.175344e+003,1.744969e+002
4.177272e+003,1.736249e+002
4.179201e+003,1.747940e+002
4.181129e+003,1.813267e+002
4.183058e+003,1.822359e+002
4.184986e+003,1.753332e+002
4.186915e+003,1.767300e+002
4.188843e+003,1.804927e+002
4.190771e+003,1.800812e+002
4.192700e+003,1.735610e+002
4.194628e+003,1.622903e+002
4.196557e+003,1.694524e+002
4.198485e+003,1.768708e+002
4.200414e+003,1.687827e+002
4.202342e+003,1.691776e+002
4.204271e+003,1.771761e+002
4.206199e+003,1.807144e+002
4.208127e+003,1.781148e+002
4.210056e+003,1.652336e+002
4.211984e+003,1.673525e+002
4.213913e+003,1.763680e+002
4.215841e+003,1.746552e+002
4.217770e+003,1.697375e+002
4.219698e+003,1.630485e+002
4.221627e+003,1.610572e+002
4.223555e+003,1.627640e+002
4.225484e+003,1.697833e+002
4.227412e+003,1.724577e+002
4.229341e+003,1.706311e+002
4.231269e+003,1.726523e+002
4.233198e+003,1.751614e+002
4.235126e+003,1.758051e+002
4.237055e+003,1.774960e+002
4.238983e+003,1.779817e+002
4.240912e+003,1.671189e+002
4.242840e+003,1.648282e+002
4.244769e+003,1.799989e+002
4.246697e+003,1.750329e+002
4.248625e+003,1.645405e+002
4.250554e+003,1.646698e+002
