1.159199e+002,3.391397e+002
1.178484e+002,3.788476e+002
1.197769e+002,4.201892e+002
1.217053e+002,4.634937e+002
1.236338e+002,4.914737e+002
1.255623e+002,4.935198e+002
1.274907e+002,4.863942e+002
1.294192e+002,4.855424e+002
1.313477e+002,4.988882e+002
1.332761e+002,5.090079e+002
1.352046e+002,5.127888e+002
1.371331e+002,5.101024e+002
1.390615e+002,4.954848e+002
1.409900e+002,4.561715e+002
1.429185e+002,4.040844e+002
1.448469e+002,3.609597e+002
1.467754e+002,3.356906e+002
1.487039e+002,3.120080e+002
1.506323e+002,2.826804e+002
1.525608e+002,2.476926e+002
1.544893e+002,2.151039e+002
1.564177e+002,1.855700e+002
1.583462e+002,1.595244e+002
1.602747e+002,1.399910e+002
1.622031e+002,1.295609e+002
1.641316e+002,1.220854e+002
1.660601e+002,1.135682e+002
1.679885e+002,1.018567e+002
1.699170e+002,9.374445e+001
1.718455e+002,9.217143e+001
1.737739e+002,9.696976e+001
1.757024e+002,9.732258e+001
1.776309e+002,8.889286e+001
1.795593e+002,7.850257e+001
1.814878e+002,7.191164e+001
1.834163e+002,7.402485e+001
1.853447e+002,7.488171e+001
1.872732e+002,7.086777e+001
1.892017e+002,6.256852e+001
1.911301e+002,5.855254e+001
1.930586e+002,6.339466e+001
1.949871e+002,7.208820e+001
1.969155e+002,7.857804e+001
1.988440e+002,8.324624e+001
2.007725e+002,8.594766e+001
2.027009e+002,8.612753e+001
2.046294e+002,8.381456e+001
2.065579e+002,8.085320e+001
2.084864e+002,7.793227e+001
2.104148e+002,7.452374e+001
2.123433e+002,6.936295e+001
2.142718e+002,6.118386e+001
2.162002e+002,5.278384e+001
2.181287e+002,4.525095e+001
2.200572e+002,3.872598e+001
2.219856e+002,3.292161e+001
2.239141e+002,2.739926e+001
2.258426e+002,2.267388e+001
2.277710e+002,1.948572e+001
2.296995e+002,1.840765e+001
2.316280e+002,1.838218e+001
2.335564e+002,1.897354e+001
2.354849e+002,2.266545e+001
2.374134e+002,2.345061e+001
2.393418e+002,1.801579e+001
2.412703e+002,9.581725e+000
2.431988e+002,5.188594e+000
2.451272e+002,1.006742e+001
2.470557e+002,1.570872e+001
2.489842e+002,1.782411e+001
2.509126e+002,1.437687e+001
2.528411e+002,1.161819e+001
2.547696e+002,1.046528e+001
2.566980e+002,1.058084e+001
2.586265e+002,1.134564e+001
2.605550e+002,1.380508e+001
2.624834e+002,1.613879e+001
2.644119e+002,1.743313e+001
2.663404e+002,1.777370e+001
2.682688e+002,1.716246e+001
2.701973e+002,1.420994e+001
2.721258e+002,9.756938e+000
2.740542e+002,8.097348e+000
2.759827e+002,1.202149e+001
2.779112e+002,1.641451e+001
2.798396e+002,1.826793e+001
2.817681e+002,1.731686e+001
2.836966e+002,1.622601e+001
2.856250e+002,1.588622e+001
2.875535e+002,1.601770e+001
2.894820e+002,1.533305e+001
2.914104e+002,1.109801e+001
2.933389e+002,8.458405e+000
2.952674e+002,1.044363e+001
2.971958e+002,1.804124e+001
2.991243e+002,2.505869e+001
3.010528e+002,3.092942e+001
3.029813e+002,3.550179e+001
3.049097e+002,3.846364e+001
3.068382e+002,4.004392e+001
3.087667e+002,3.979587e+001
3.106951e+002,3.702494e+001
3.126236e+002,3.036049e+001
3.145521e+002,2.565357e+001
3.164805e+002,2.470622e+001
3.184090e+002,2.589749e+001
3.203375e+002,2.566654e+001
3.222659e+002,2.290346e+001
3.241944e+002,2.036524e+001
3.261229e+002,1.927089e+001
3.280513e+002,2.061938e+001
3.299798e+002,2.083962e+001
3.319083e+002,1.864660e+001
3.338367e+002,1.576908e+001
3.357652e+002,1.441569e+001
3.376937e+002,1.488000e+001
3.396221e+002,1.650415e+001
3.415506e+002,1.923069e+001
3.434791e+002,2.336680e+001
3.454075e+002,2.706846e+001
3.473360e+002,3.086871e+001
3.492645e+002,3.390065e+001
3.511929e+002,3.545475e+001
3.531214e+002,3.457235e+001
3.550499e+002,3.399800e+001
3.569783e+002,3.554229e+001
3.589068e+002,3.896141e+001
3.608353e+002,3.874529e+001
3.627637e+002,3.046976e+001
3.646922e+002,2.205059e+001
3.666207e+002,1.837312e+001
3.685491e+002,2.256865e+001
3.704776e+002,2.498988e+001
3.724061e+002,2.321944e+001
3.743345e+002,1.838157e+001
3.762630e+002,1.484039e+001
3.781915e+002,1.340623e+001
3.801199e+002,1.235017e+001
3.820484e+002,1.072134e+001
3.839769e+002,7.900139e+000
3.859053e+002,6.086275e+000
3.878338e+002,5.641144e+000
3.897623e+002,6.196870e+000
3.916907e+002,7.048683e+000
3.936192e+002,8.164167e+000
3.955477e+002,9.642447e+000
3.974761e+002,1.158917e+001
3.994046e+002,1.414025e+001
4.013331e+002,1.635076e+001
4.032615e+002,1.819166e+001
4.051900e+002,1.973318e+001
4.071185e+002,2.123169e+001
4.090469e+002,2.310522e+001
4.109754e+002,2.380091e+001
4.129039e+002,2.245595e+001
4.148323e+002,1.945760e+001
4.167608e+002,1.729276e+001
4.186893e+002,1.618635e+001
4.206177e+002,1.560480e+001
4.225462e+002,1.554741e+001
4.244747e+002,1.618976e+001
4.264032e+002,1.614608e+001
4.283316e+002,1.441878e+001
4.302601e+002,1.209247e+001
4.321886e+002,1.089691e+001
4.341170e+002,1.012902e+001
4.360455e+002,1.121494e+001
4.379740e+002,1.657750e+001
4.399024e+002,2.568413e+001
4.418309e+002,3.059115e+001
4.437594e+002,2.593263e+001
4.456878e+002,2.018447e+001
4.476163e+002,1.965537e+001
4.495448e+002,2.525753e+001
4.514732e+002,3.159766e+001
4.534017e+002,3.817864e+001
4.553302e+002,4.470527e+001
4.572586e+002,5.038394e+001
4.591871e+002,5.840158e+001
4.611156e+002,6.256237e+001
4.630440e+002,5.861177e+001
4.649725e+002,4.679268e+001
4.669010e+002,3.726155e+001
4.688294e+002,3.254742e+001
4.707579e+002,2.996766e+001
4.726864e+002,2.744836e+001
4.746148e+002,2.511472e+001
4.765433e+002,2.265713e+001
4.784718e+002,1.828751e+001
4.804002e+002,1.386942e+001
4.823287e+002,1.406128e+001
4.842572e+002,2.417352e+001
4.861856e+002,3.235722e+001
4.881141e+002,3.275232e+001
4.900426e+002,2.174652e+001
4.919710e+002,1.554309e+001
4.938995e+002,1.758076e+001
4.958280e+002,2.225958e+001
4.977564e+002,2.439640e+001
4.996849e+002,2.302185e+001
5.016134e+002,2.204077e+001
5.035418e+002,2.296865e+001
5.054703e+002,2.519017e+001
5.073988e+002,2.609017e+001
5.093272e+002,2.444252e+001
5.112557e+002,2.283881e+001
5.131842e+002,2.194544e+001
5.151127e+002,2.168103e+001
5.170411e+002,2.277581e+001
5.189696e+002,2.853155e+001
5.208981e+002,3.385116e+001
5.228265e+002,3.386538e+001
5.247550e+002,2.468677e+001
5.266835e+002,1.809859e+001
5.286119e+002,1.760227e+001
5.305404e+002,2.059093e+001
5.324689e+002,2.243807e+001
5.343973e+002,2.115257e+001
5.363258e+002,2.079015e+001
5.382543e+002,2.370761e+001
5.401827e+002,3.026295e+001
5.421112e+002,3.316256e+001
5.440397e+002,2.918914e+001
5.459681e+002,2.394337e+001
5.478966e+002,2.072762e+001
5.498251e+002,2.002403e+001
5.517535e+002,1.989021e+001
5.536820e+002,2.122498e+001
5.556105e+002,2.261399e+001
5.575389e+002,2.130312e+001
5.594674e+002,1.537938e+001
5.613959e+002,1.100125e+001
5.633243e+002,1.165704e+001
5.652528e+002,1.591323e+001
5.671813e+002,1.761183e+001
5.691097e+002,1.221840e+001
5.710382e+002,7.987450e+000
5.729667e+002,9.553514e+000
5.748951e+002,1.762639e+001
5.768236e+002,2.270236e+001
5.787521e+002,2.122962e+001
5.806805e+002,1.800619e+001
5.826090e+002,1.679215e+001
5.845375e+002,1.860349e+001
5.864659e+002,2.067245e+001
5.883944e+002,2.251956e+001
5.903229e+002,2.446253e+001
5.922513e+002,2.715246e+001
5.941798e+002,3.091717e+001
5.961083e+002,3.471883e+001
5.980367e+002,3.933848e+001
5.999652e+002,4.453584e+001
6.018937e+002,4.577067e+001
6.038221e+002,3.499927e+001
6.057506e+002,2.756380e+001
6.076791e+002,3.343130e+001
6.096075e+002,5.272236e+001
6.115360e+002,6.664477e+001
6.134645e+002,7.173270e+001
6.153929e+002,7.086000e+001
6.173214e+002,6.594707e+001
6.192499e+002,5.469306e+001
6.211783e+002,4.355185e+001
6.231068e+002,3.054566e+001
6.250353e+002,1.872793e+001
6.269637e+002,1.318692e+001
6.288922e+002,1.606110e+001
6.308207e+002,1.923302e+001
6.327491e+002,1.990544e+001
6.346776e+002,1.870564e+001
6.366061e+002,1.810891e+001
6.385345e+002,1.917410e+001
6.404630e+002,1.976634e+001
6.423915e+002,1.884334e+001
6.443199e+002,1.658623e+001
6.462484e+002,1.472961e+001
6.481769e+002,1.257066e+001
6.501053e+002,1.183368e+001
6.520338e+002,1.369335e+001
6.539623e+002,1.955404e+001
6.558907e+002,2.403649e+001
6.578192e+002,2.715729e+001
6.597477e+002,2.894342e+001
6.616761e+002,2.902303e+001
6.636046e+002,2.714389e+001
6.655331e+002,2.531770e+001
6.674615e+002,2.402241e+001
6.693900e+002,2.307096e+001
6.713185e+002,2.226019e+001
6.732469e+002,2.113662e+001
6.751754e+002,2.074717e+001
6.771039e+002,2.165196e+001
6.790323e+002,2.342162e+001
6.809608e+002,2.495734e+001
6.828893e+002,2.680429e+001
6.848177e+002,2.741601e+001
6.867462e+002,2.498811e+001
6.886747e+002,1.977173e+001
6.906031e+002,1.813107e+001
6.925316e+002,2.541752e+001
6.944601e+002,3.110243e+001
6.963885e+002,2.860419e+001
6.983170e+002,1.859404e+001
7.002455e+002,1.325901e+001
7.021740e+002,1.743446e+001
7.041024e+002,2.332243e+001
7.060309e+002,2.646853e+001
7.079594e+002,2.611996e+001
7.098878e+002,2.519623e+001
7.118163e+002,2.314910e+001
7.137448e+002,2.103759e+001
7.156732e+002,1.980449e+001
7.176017e+002,1.942165e+001
7.195302e+002,1.957738e+001
7.214586e+002,2.048376e+001
7.233871e+002,2.179344e+001
7.253156e+002,2.305699e+001
7.272440e+002,2.335734e+001
7.291725e+002,2.533494e+001
7.311010e+002,3.057484e+001
7.330294e+002,3.729796e+001
7.349579e+002,4.238867e+001
7.368864e+002,4.570971e+001
7.388149e+002,4.798642e+001
7.407433e+002,5.020335e+001
7.426718e+002,5.150275e+001
7.446003e+002,4.946822e+001
7.465287e+002,3.975999e+001
7.484572e+002,3.172951e+001
7.503857e+002,2.770036e+001
7.523141e+002,2.700321e+001
7.542426e+002,2.641985e+001
7.561711e+002,2.664087e+001
7.580995e+002,2.594491e+001
7.600280e+002,2.226571e+001
7.619565e+002,1.650716e+001
7.638849e+002,1.389650e+001
7.658134e+002,1.915046e+001
7.677419e+002,2.335111e+001
7.696703e+002,2.186091e+001
7.715988e+002,1.484601e+001
7.735273e+002,1.362030e+001
7.754557e+002,2.385094e+001
7.773842e+002,3.366096e+001
7.793127e+002,3.675309e+001
7.812411e+002,3.365646e+001
7.831696e+002,3.077472e+001
7.850981e+002,2.869632e+001
7.870266e+002,2.705257e+001
7.889550e+002,2.528154e+001
7.908835e+002,2.311373e+001
7.928120e+002,2.335283e+001
7.947404e+002,2.744114e+001
7.966689e+002,3.280277e+001
7.985974e+002,3.763241e+001
8.005258e+002,4.187752e+001
8.024543e+002,4.810321e+001
8.043828e+002,5.770929e+001
8.063112e+002,6.867038e+001
8.082397e+002,8.033492e+001
8.101682e+002,9.331042e+001
8.120966e+002,1.044919e+002
8.140251e+002,1.165760e+002
8.159536e+002,1.246987e+002
8.178820e+002,1.236389e+002
8.198105e+002,1.133070e+002
8.217390e+002,1.057265e+002
8.236674e+002,1.090667e+002
8.255959e+002,1.115377e+002
8.275244e+002,1.052495e+002
8.294528e+002,8.501752e+001
8.313813e+002,6.898366e+001
8.333098e+002,5.826680e+001
8.352382e+002,5.062307e+001
8.371667e+002,4.434484e+001
8.390952e+002,3.923801e+001
8.410236e+002,3.654854e+001
8.429521e+002,3.851219e+001
8.448806e+002,4.155690e+001
8.468090e+002,4.355781e+001
8.487375e+002,4.468591e+001
8.506660e+002,4.408947e+001
8.525944e+002,4.046642e+001
8.545229e+002,3.619729e+001
8.564514e+002,3.299141e+001
8.583798e+002,3.083112e+001
8.603083e+002,2.931498e+001
8.622368e+002,2.932578e+001
8.641652e+002,2.914235e+001
8.660937e+002,2.730011e+001
8.680222e+002,2.312730e+001
8.699506e+002,2.049527e+001
8.718791e+002,2.082393e+001
8.738076e+002,2.167177e+001
8.757360e+002,2.111805e+001
8.776645e+002,1.883066e+001
8.795930e+002,1.830486e+001
8.815214e+002,2.216777e+001
8.834499e+002,2.562400e+001
8.853784e+002,2.532301e+001
8.873068e+002,2.120417e+001
8.892353e+002,1.826139e+001
8.911638e+002,1.752263e+001
8.930922e+002,1.774106e+001
8.950207e+002,1.808128e+001
8.969492e+002,1.838644e+001
8.988776e+002,2.098959e+001
9.008061e+002,2.876279e+001
9.027346e+002,3.602467e+001
9.046630e+002,4.027141e+001
9.065915e+002,4.186483e+001
9.085200e+002,4.116185e+001
9.104484e+002,3.608321e+001
9.123769e+002,3.151621e+001
9.143054e+002,3.005363e+001
9.162338e+002,3.148815e+001
9.181623e+002,3.093089e+001
9.200908e+002,2.672029e+001
9.220192e+002,2.252699e+001
9.239477e+002,1.897036e+001
9.258762e+002,1.630805e+001
9.278046e+002,1.511112e+001
9.297331e+002,1.535843e+001
9.316616e+002,1.727617e+001
9.335900e+002,2.237315e+001
9.355185e+002,2.919037e+001
9.374470e+002,3.353800e+001
9.393754e+002,3.363107e+001
9.413039e+002,3.338438e+001
9.432324e+002,3.354502e+001
9.451608e+002,3.370887e+001
9.470893e+002,3.304820e+001
9.490178e+002,3.155465e+001
9.509462e+002,2.951486e+001
9.528747e+002,2.573348e+001
9.548032e+002,2.208908e+001
9.567316e+002,2.074815e+001
9.586601e+002,2.226093e+001
9.605886e+002,2.426195e+001
9.625170e+002,2.751683e+001
9.644455e+002,3.028942e+001
9.663740e+002,3.052709e+001
9.683024e+002,2.590661e+001
9.702309e+002,2.478269e+001
9.721594e+002,2.619618e+001
9.740878e+002,3.190609e+001
9.760163e+002,4.421219e+001
9.779448e+002,6.257680e+001
9.798733e+002,8.231781e+001
9.818018e+002,9.938927e+001
9.837302e+002,1.220337e+002
9.856587e+002,1.546923e+002
9.875872e+002,1.973468e+002
9.895156e+002,2.421712e+002
9.914441e+002,3.041407e+002
9.933726e+002,3.515005e+002
9.953010e+002,3.798098e+002
9.972295e+002,3.853308e+002
9.991580e+002,3.564263e+002
1.001086e+003,2.754066e+002
1.003015e+003,1.979727e+002
1.004943e+003,1.405338e+002
1.006872e+003,9.925674e+001
1.008800e+003,7.018333e+001
1.010729e+003,5.550674e+001
1.012657e+003,4.821384e+001
1.014586e+003,4.892832e+001
1.016514e+003,5.444302e+001
1.018443e+003,6.175154e+001
1.020371e+003,7.191095e+001
1.022300e+003,8.129214e+001
1.024228e+003,9.265244e+001
1.026156e+003,1.009685e+002
1.028085e+003,1.018110e+002
1.030013e+003,9.591474e+001
1.031942e+003,8.834363e+001
1.033870e+003,7.928976e+001
1.035799e+003,6.911054e+001
1.037727e+003,5.696377e+001
1.039656e+003,4.320335e+001
1.041584e+003,3.219324e+001
1.043513e+003,2.346232e+001
1.045441e+003,1.814079e+001
1.047370e+003,1.798303e+001
1.049298e+003,2.131590e+001
1.051227e+003,2.457698e+001
1.053155e+003,2.842867e+001
1.055083e+003,3.050913e+001
1.057012e+003,2.879958e+001
1.058940e+003,2.585254e+001
1.060869e+003,2.424236e+001
1.062797e+003,2.424540e+001
1.064726e+003,2.383153e+001
1.066654e+003,2.110302e+001
1.068583e+003,1.921718e+001
1.070511e+003,2.072540e+001
1.072440e+003,2.615068e+001
1.074368e+003,2.886193e+001
1.076297e+003,2.633036e+001
1.078225e+003,2.425605e+001
1.080154e+003,2.592437e+001
1.082082e+003,2.949079e+001
1.084010e+003,2.949156e+001
1.085939e+003,2.426145e+001
1.087867e+003,1.981214e+001
1.089796e+003,1.781012e+001
1.091724e+003,1.779098e+001
1.093653e+003,2.022344e+001
1.095581e+003,2.706256e+001
1.097510e+003,2.978463e+001
1.099438e+003,2.357222e+001
1.101367e+003,1.654653e+001
1.103295e+003,1.386444e+001
1.105224e+003,1.593067e+001
1.107152e+003,1.856430e+001
1.109081e+003,2.351612e+001
1.111009e+003,2.713507e+001
1.112938e+003,2.695204e+001
1.114866e+003,2.461548e+001
1.116794e+003,2.408684e+001
1.118723e+003,2.633213e+001
1.120651e+003,2.795546e+001
1.122580e+003,2.676901e+001
1.124508e+003,2.507345e+001
1.126437e+003,2.538716e+001
1.128365e+003,2.858424e+001
1.130294e+003,3.105278e+001
1.132222e+003,3.197273e+001
1.134151e+003,3.282070e+001
1.136079e+003,3.451038e+001
1.138008e+003,3.698339e+001
1.139936e+003,3.904313e+001
1.141865e+003,4.016895e+001
1.143793e+003,4.163926e+001
1.145721e+003,4.385468e+001
1.147650e+003,4.667730e+001
1.149578e+003,5.017555e+001
1.151507e+003,5.477361e+001
1.153435e+003,5.806089e+001
1.155364e+003,5.970315e+001
1.157292e+003,5.958947e+001
1.159221e+003,5.693638e+001
1.161149e+003,5.117651e+001
1.163078e+003,4.734781e+001
1.165006e+003,4.619765e+001
1.166935e+003,4.601354e+001
1.168863e+003,4.609438e+001
1.170792e+003,4.678086e+001
1.172720e+003,4.927359e+001
1.174648e+003,5.435971e+001
1.176577e+003,5.891937e+001
1.178505e+003,6.435745e+001
1.180434e+003,6.746032e+001
1.182362e+003,6.422381e+001
1.184291e+003,5.494880e+001
1.186219e+003,4.802667e+001
1.188148e+003,4.381516e+001
1.190076e+003,4.345348e+001
1.192005e+003,4.717849e+001
1.193933e+003,5.488198e+001
1.195862e+003,6.631855e+001
1.197790e+003,8.408846e+001
1.199719e+003,1.016236e+002
1.201647e+003,1.220887e+002
1.203575e+003,1.394435e+002
1.205504e+003,1.486433e+002
1.207432e+003,1.491478e+002
1.209361e+003,1.416837e+002
1.211289e+003,1.183954e+002
1.213218e+003,9.652480e+001
1.215146e+003,8.506522e+001
1.217075e+003,7.967300e+001
1.219003e+003,7.131256e+001
1.220932e+003,5.844839e+001
1.222860e+003,4.766544e+001
1.224789e+003,4.210481e+001
1.226717e+003,3.821290e+001
1.228646e+003,3.312055e+001
1.230574e+003,2.641922e+001
1.232502e+003,2.260289e+001
1.234431e+003,2.549966e+001
1.236359e+003,2.696615e+001
1.238288e+003,2.318113e+001
1.240216e+003,1.691158e+001
1.242145e+003,1.395800e+001
1.244073e+003,1.564765e+001
1.246002e+003,1.723272e+001
1.247930e+003,1.815982e+001
1.249859e+003,1.906664e+001
1.251787e+003,2.063839e+001
1.253716e+003,2.262414e+001
1.255644e+003,2.396447e+001
1.257573e+003,2.488372e+001
1.259501e+003,2.447875e+001
1.261429e+003,1.994101e+001
1.263358e+003,1.526702e+001
1.265286e+003,1.582182e+001
1.267215e+003,2.280086e+001
1.269143e+003,2.734795e+001
1.271072e+003,2.536853e+001
1.273000e+003,2.400059e+001
1.274929e+003,2.659209e+001
1.276857e+003,3.191575e+001
1.278786e+003,3.583136e+001
1.280714e+003,3.546322e+001
1.282643e+003,3.787256e+001
1.284571e+003,4.698007e+001
1.286500e+003,5.594739e+001
1.288428e+003,5.796724e+001
1.290356e+003,5.380622e+001
1.292285e+003,5.394883e+001
1.294213e+003,6.052008e+001
1.296142e+003,6.792175e+001
1.298070e+003,7.691029e+001
1.299999e+003,8.402808e+001
1.301927e+003,8.461771e+001
1.303856e+003,7.822307e+001
1.305784e+003,7.262183e+001
1.307713e+003,7.030786e+001
1.309641e+003,6.718197e+001
1.311570e+003,5.999946e+001
1.313498e+003,5.091939e+001
1.315427e+003,4.591336e+001
1.317355e+003,4.719718e+001
1.319283e+003,4.773595e+001
1.321212e+003,4.507037e+001
1.323140e+003,4.323817e+001
1.325069e+003,4.603783e+001
1.326997e+003,5.277329e+001
1.328926e+003,5.573658e+001
1.330854e+003,5.242513e+001
1.332783e+003,4.965295e+001
1.334711e+003,4.909920e+001
1.336640e+003,4.911823e+001
1.338568e+003,4.838639e+001
1.340497e+003,4.691384e+001
1.342425e+003,4.414864e+001
1.344354e+003,3.860117e+001
1.346282e+003,3.447879e+001
1.348210e+003,3.493461e+001
1.350139e+003,3.691408e+001
1.352068e+003,3.658145e+001
1.353996e+003,3.373939e+001
1.355924e+003,3.165348e+001
1.357853e+003,3.094969e+001
1.359781e+003,3.084902e+001
1.361710e+003,3.208069e+001
1.363638e+003,3.339410e+001
1.365567e+003,3.180819e+001
1.367495e+003,2.518456e+001
1.369424e+003,2.160561e+001
1.371352e+003,2.455768e+001
1.373281e+003,2.720489e+001
1.375209e+003,2.491702e+001
1.377138e+003,1.980155e+001
1.379066e+003,1.888838e+001
1.380995e+003,2.420353e+001
1.382923e+003,2.971293e+001
1.384851e+003,3.783830e+001
1.386780e+003,4.343605e+001
1.388708e+003,4.041938e+001
1.390637e+003,3.170147e+001
1.392565e+003,2.980148e+001
1.394494e+003,3.689213e+001
1.396422e+003,4.398487e+001
1.398351e+003,4.962389e+001
1.400279e+003,5.393970e+001
1.402208e+003,5.813947e+001
1.404136e+003,6.125174e+001
1.406065e+003,5.853097e+001
1.407993e+003,4.722549e+001
1.409922e+003,3.760122e+001
1.411850e+003,3.134784e+001
1.413778e+003,2.908736e+001
1.415707e+003,3.367366e+001
1.417635e+003,4.406572e+001
1.419564e+003,4.822458e+001
1.421492e+003,4.093193e+001
1.423421e+003,3.720361e+001
1.425349e+003,4.209821e+001
1.427278e+003,4.962348e+001
1.429206e+003,5.553305e+001
1.431135e+003,5.980537e+001
1.433063e+003,6.309722e+001
1.434992e+003,6.605307e+001
1.436920e+003,6.698450e+001
1.438849e+003,6.484552e+001
1.440777e+003,6.131649e+001
1.442705e+003,5.787959e+001
1.444634e+003,5.449199e+001
1.446562e+003,4.957653e+001
1.448491e+003,4.007729e+001
1.450419e+003,3.440236e+001
1.452348e+003,3.917868e+001
1.454276e+003,4.413015e+001
1.456205e+003,3.811247e+001
1.458133e+003,2.372309e+001
1.460062e+003,1.699936e+001
1.461990e+003,2.077928e+001
1.463919e+003,2.553384e+001
1.465847e+003,2.974621e+001
1.467776e+003,3.307414e+001
1.469704e+003,3.524008e+001
1.471632e+003,3.634399e+001
1.473561e+003,3.636925e+001
1.475489e+003,3.478325e+001
1.477418e+003,3.404527e+001
1.479346e+003,3.589392e+001
1.481275e+003,3.763745e+001
1.483203e+003,3.688119e+001
1.485132e+003,3.456281e+001
1.487060e+003,3.452478e+001
1.488989e+003,3.769979e+001
1.490917e+003,4.026316e+001
1.492846e+003,4.252384e+001
1.494774e+003,4.282282e+001
1.496703e+003,3.892206e+001
1.498631e+003,3.254853e+001
1.500559e+003,2.883616e+001
1.502488e+003,2.852474e+001
1.504416e+003,2.874428e+001
1.506345e+003,2.898895e+001
1.508273e+003,3.000760e+001
1.510202e+003,3.359802e+001
1.512130e+003,3.766397e+001
1.514059e+003,3.793195e+001
1.515987e+003,3.278947e+001
1.517916e+003,2.888151e+001
1.519844e+003,2.454733e+001
1.521773e+003,2.340646e+001
1.523701e+003,2.989993e+001
1.525630e+003,3.832466e+001
1.527558e+003,4.065920e+001
1.529486e+003,3.600954e+001
1.531415e+003,3.287959e+001
1.533343e+003,3.149970e+001
1.535272e+003,3.125595e+001
1.537200e+003,3.402630e+001
1.539129e+003,3.631000e+001
1.541057e+003,3.372292e+001
1.542986e+003,2.713826e+001
1.544914e+003,2.421868e+001
1.546843e+003,2.630698e+001
1.548771e+003,2.853469e+001
1.550700e+003,3.052601e+001
1.552628e+003,3.178678e+001
1.554557e+003,3.184188e+001
1.556485e+003,3.089291e+001
1.558413e+003,2.877920e+001
1.560342e+003,2.474415e+001
1.562270e+003,2.473584e+001
1.564199e+003,3.247784e+001
1.566127e+003,4.055555e+001
1.568056e+003,4.624696e+001
1.569984e+003,4.969855e+001
1.571913e+003,4.967138e+001
1.573841e+003,4.648823e+001
1.575770e+003,4.898258e+001
1.577698e+003,6.207812e+001
1.579627e+003,7.164852e+001
1.581555e+003,7.026982e+001
1.583484e+003,6.532626e+001
1.585412e+003,6.141496e+001
1.587340e+003,5.892818e+001
1.589269e+003,5.945167e+001
1.591197e+003,6.299645e+001
1.593126e+003,7.010139e+001
1.595054e+003,8.573484e+001
1.596983e+003,9.874284e+001
1.598911e+003,1.024176e+002
1.600840e+003,9.981284e+001
1.602768e+003,9.682124e+001
1.604697e+003,9.361069e+001
1.606625e+003,8.724220e+001
1.608554e+003,7.494218e+001
1.610482e+003,6.400873e+001
1.612411e+003,5.664317e+001
1.614339e+003,5.194393e+001
1.616267e+003,4.967614e+001
1.618196e+003,4.962694e+001
1.620124e+003,5.012598e+001
1.622053e+003,5.174510e+001
1.623981e+003,5.216813e+001
1.625910e+003,5.032727e+001
1.627838e+003,4.780055e+001
1.629767e+003,4.486631e+001
1.631695e+003,4.187099e+001
1.633624e+003,4.006010e+001
1.635552e+003,3.997771e+001
1.637481e+003,3.660625e+001
1.639409e+003,2.579746e+001
1.641338e+003,1.815696e+001
1.643266e+003,1.775140e+001
1.645194e+003,2.002810e+001
1.647123e+003,2.178533e+001
1.649051e+003,2.314481e+001
1.650980e+003,2.476903e+001
1.652908e+003,2.665130e+001
1.654837e+003,2.878196e+001
1.656765e+003,3.275283e+001
1.658694e+003,3.497992e+001
1.660622e+003,3.360189e+001
1.662551e+003,3.022909e+001
1.664479e+003,2.609741e+001
1.666408e+003,2.103289e+001
1.668336e+003,1.943605e+001
1.670265e+003,2.394893e+001
1.672193e+003,2.669131e+001
1.674121e+003,2.545055e+001
1.676050e+003,2.342358e+001
1.677978e+003,2.227204e+001
1.679907e+003,2.150718e+001
1.681835e+003,1.990509e+001
1.683764e+003,1.699072e+001
1.685692e+003,1.550464e+001
1.687621e+003,1.486002e+001
1.689549e+003,1.676568e+001
1.691478e+003,2.546241e+001
1.693406e+003,3.294606e+001
1.695335e+003,3.226589e+001
1.697263e+003,2.588262e+001
1.699192e+003,2.184805e+001
1.701120e+003,2.078040e+001
1.703048e+003,1.971798e+001
1.704977e+003,1.651005e+001
1.706905e+003,1.609483e+001
1.708834e+003,2.383626e+001
1.710762e+003,3.125403e+001
1.712691e+003,2.932515e+001
1.714619e+003,2.024541e+001
1.716548e+003,1.591699e+001
1.718476e+003,1.769781e+001
1.720405e+003,1.975316e+001
1.722333e+003,2.286519e+001
1.724262e+003,2.444491e+001
1.726190e+003,2.060822e+001
1.728119e+003,1.741405e+001
1.730047e+003,2.340706e+001
1.731975e+003,3.647339e+001
1.733904e+003,3.944960e+001
1.735832e+003,2.845486e+001
1.737761e+003,2.067876e+001
1.739689e+003,1.965627e+001
1.741618e+003,2.006092e+001
1.743546e+003,2.036040e+001
1.745475e+003,2.102761e+001
1.747403e+003,2.292602e+001
1.749332e+003,2.576902e+001
1.751260e+003,2.742452e+001
1.753189e+003,2.780557e+001
1.755117e+003,2.730441e+001
1.757046e+003,2.552958e+001
1.758974e+003,2.361016e+001
1.760902e+003,2.196173e+001
1.762831e+003,2.036712e+001
1.764759e+003,1.794521e+001
1.766688e+003,1.530259e+001
1.768616e+003,1.556067e+001
1.770545e+003,1.934018e+001
1.772473e+003,2.254304e+001
1.774402e+003,2.456289e+001
1.776330e+003,2.587451e+001
1.778259e+003,2.603045e+001
1.780187e+003,2.611368e+001
1.782116e+003,2.737305e+001
1.784044e+003,2.918144e+001
1.785973e+003,2.979842e+001
1.787901e+003,2.916767e+001
1.789829e+003,2.776192e+001
1.791758e+003,2.510904e+001
1.793686e+003,2.297178e+001
1.795615e+003,2.217329e+001
1.797543e+003,2.185944e+001
1.799472e+003,2.132151e+001
1.801400e+003,2.088184e+001
1.803329e+003,2.140057e+001
1.805257e+003,2.283247e+001
1.807186e+003,2.341874e+001
1.809114e+003,2.265516e+001
1.811043e+003,2.203177e+001
1.812971e+003,2.131072e+001
1.814900e+003,2.161738e+001
1.816828e+003,2.468550e+001
1.818756e+003,2.850533e+001
1.820685e+003,3.051748e+001
1.822613e+003,3.077931e+001
1.824542e+003,2.923456e+001
1.826470e+003,2.505647e+001
1.828399e+003,2.201526e+001
1.830327e+003,2.160476e+001
1.832256e+003,2.121894e+001
1.834184e+003,1.898865e+001
1.836113e+003,1.715048e+001
1.838041e+003,1.879830e+001
1.839970e+003,2.264115e+001
1.841898e+003,2.356820e+001
1.843827e+003,2.008532e+001
1.845755e+003,1.927177e+001
1.847684e+003,2.399386e+001
1.849612e+003,2.716721e+001
1.851541e+003,2.595751e+001
1.853469e+003,2.451813e+001
1.855397e+003,2.643628e+001
1.857326e+003,2.923612e+001
1.859254e+003,2.822918e+001
1.861183e+003,2.334396e+001
1.863111e+003,2.047682e+001
1.865040e+003,2.090236e+001
1.866968e+003,2.056767e+001
1.868897e+003,1.724746e+001
1.870825e+003,1.575630e+001
1.872754e+003,1.972252e+001
1.874682e+003,2.404078e+001
1.876611e+003,2.344302e+001
1.878539e+003,1.997462e+001
1.880468e+003,1.995065e+001
1.882396e+003,2.363782e+001
1.884324e+003,2.600195e+001
1.886253e+003,2.613881e+001
1.888181e+003,2.665047e+001
1.890110e+003,2.934637e+001
1.892038e+003,3.083135e+001
1.893967e+003,2.876052e+001
1.895895e+003,2.509246e+001
1.897824e+003,2.058098e+001
1.899752e+003,1.623154e+001
1.901681e+003,1.575678e+001
1.903609e+003,1.944465e+001
1.905538e+003,2.336689e+001
1.907466e+003,2.840024e+001
1.909395e+003,3.019921e+001
1.911323e+003,2.330762e+001
1.913251e+003,1.765994e+001
1.915180e+003,2.106246e+001
1.917108e+003,2.716640e+001
1.919037e+003,2.694660e+001
1.920965e+003,2.171947e+001
1.922894e+003,1.964826e+001
1.924822e+003,2.147976e+001
1.926751e+003,2.351762e+001
1.928679e+003,2.725890e+001
1.930608e+003,2.877171e+001
1.932536e+003,2.451650e+001
1.934465e+003,2.111024e+001
1.936393e+003,2.471815e+001
1.938322e+003,2.971825e+001
1.940250e+003,2.683596e+001
1.942178e+003,1.772972e+001
1.944107e+003,1.486176e+001
1.946035e+003,1.984809e+001
1.947964e+003,2.455449e+001
1.949892e+003,2.915136e+001
1.951821e+003,3.227365e+001
1.953749e+003,3.343249e+001
1.955678e+003,3.328960e+001
1.957606e+003,3.131353e+001
1.959535e+003,2.887993e+001
1.961463e+003,2.762663e+001
1.963392e+003,2.715364e+001
1.965320e+003,2.595227e+001
1.967249e+003,2.396368e+001
1.969177e+003,2.338779e+001
1.971105e+003,2.482340e+001
1.973034e+003,2.649601e+001
1.974962e+003,2.871181e+001
1.976891e+003,3.000218e+001
1.978819e+003,2.869949e+001
1.980748e+003,2.708496e+001
1.982676e+003,2.795768e+001
1.984605e+003,2.993962e+001
1.986533e+003,2.943736e+001
1.988462e+003,2.626529e+001
1.990390e+003,2.379185e+001
1.992319e+003,2.228320e+001
1.994247e+003,2.101630e+001
1.996176e+003,1.950690e+001
1.998104e+003,1.894511e+001
2.000032e+003,1.931731e+001
2.001961e+003,2.110335e+001
2.003889e+003,2.720452e+001
2.005818e+003,3.326631e+001
2.007746e+003,3.106808e+001
2.009675e+003,2.248443e+001
2.011603e+003,2.013603e+001
2.013532e+003,2.480664e+001
2.015460e+003,2.621172e+001
2.017389e+003,2.145374e+001
2.019317e+003,1.981109e+001
2.021246e+003,2.617612e+001
2.023174e+003,3.197871e+001
2.025103e+003,3.336642e+001
2.027031e+003,3.217430e+001
2.028959e+003,2.875427e+001
2.030888e+003,2.435392e+001
2.032816e+003,2.093010e+001
2.034745e+003,1.856340e+001
2.036673e+003,1.900532e+001
2.038602e+003,2.417069e+001
2.040530e+003,2.651433e+001
2.042459e+003,2.388925e+001
2.044387e+003,2.152803e+001
2.046316e+003,1.908066e+001
2.048244e+003,1.854391e+001
2.050173e+003,2.293310e+001
2.052101e+003,2.771479e+001
2.054030e+003,2.707487e+001
2.055958e+003,2.412738e+001
2.057886e+003,2.719201e+001
2.059815e+003,3.544853e+001
2.061743e+003,4.009540e+001
2.063672e+003,4.048392e+001
2.065600e+003,3.982338e+001
2.067529e+003,3.900696e+001
2.069457e+003,3.583958e+001
2.071386e+003,2.601515e+001
2.073314e+003,1.882824e+001
2.075243e+003,1.899912e+001
2.077171e+003,2.358778e+001
2.079100e+003,3.339855e+001
2.081028e+003,4.417645e+001
2.082957e+003,4.637727e+001
2.084885e+003,4.077226e+001
2.086813e+003,3.780770e+001
2.088742e+003,3.895109e+001
2.090670e+003,3.803873e+001
2.092599e+003,3.216687e+001
2.094527e+003,3.013684e+001
2.096456e+003,3.664269e+001
2.098384e+003,4.210841e+001
2.100313e+003,4.402114e+001
2.102241e+003,4.282236e+001
2.104170e+003,3.573975e+001
2.106098e+003,2.792838e+001
2.108027e+003,2.623857e+001
2.109955e+003,2.923427e+001
2.111884e+003,3.354553e+001
2.113812e+003,3.908446e+001
2.115740e+003,4.130754e+001
2.117669e+003,3.896413e+001
2.119597e+003,3.659029e+001
2.121526e+003,3.321724e+001
2.123454e+003,3.211928e+001
2.125383e+003,3.675485e+001
2.127311e+003,4.029346e+001
2.129240e+003,3.934229e+001
2.131168e+003,3.591060e+001
2.133097e+003,2.883414e+001
2.135025e+003,2.210577e+001
2.136954e+003,2.558988e+001
2.138882e+003,3.626133e+001
2.140811e+003,3.739170e+001
2.142739e+003,2.874520e+001
2.144667e+003,2.651760e+001
2.146596e+003,3.390026e+001
2.148524e+003,3.916351e+001
2.150453e+003,3.928590e+001
2.152381e+003,3.854192e+001
2.154310e+003,3.920846e+001
2.156238e+003,3.804883e+001
2.158167e+003,3.000658e+001
2.160095e+003,2.283025e+001
2.162024e+003,2.579387e+001
2.163952e+003,3.308335e+001
2.165881e+003,3.353704e+001
2.167809e+003,2.891176e+001
2.169738e+003,3.051340e+001
2.171666e+003,3.851831e+001
2.173594e+003,4.114384e+001
2.175523e+003,3.670258e+001
2.177451e+003,3.328438e+001
2.179380e+003,3.189608e+001
2.181308e+003,3.242064e+001
2.183237e+003,3.689713e+001
2.185165e+003,4.023147e+001
2.187094e+003,3.944821e+001
2.189022e+003,3.768755e+001
2.190951e+003,3.688155e+001
2.192879e+003,3.663914e+001
2.194808e+003,3.719330e+001
2.196736e+003,3.768859e+001
2.198665e+003,3.453442e+001
2.200593e+003,2.797920e+001
2.202521e+003,2.880941e+001
2.204450e+003,3.818958e+001
2.206378e+003,3.945115e+001
2.208307e+003,2.898021e+001
2.210235e+003,2.080388e+001
2.212164e+003,1.662033e+001
2.214092e+003,1.750522e+001
2.216021e+003,2.991955e+001
2.217949e+003,3.930961e+001
2.219878e+003,3.547821e+001
2.221806e+003,2.985153e+001
2.223735e+003,3.192532e+001
2.225663e+003,3.703205e+001
2.227592e+003,3.920523e+001
2.229520e+003,3.935221e+001
2.231448e+003,4.073337e+001
2.233377e+003,4.286159e+001
2.235305e+003,3.929018e+001
2.237234e+003,2.975002e+001
2.239162e+003,2.605517e+001
2.241091e+003,3.022444e+001
2.243019e+003,3.460138e+001
2.244948e+003,3.872005e+001
2.246876e+003,4.093021e+001
2.248805e+003,3.930740e+001
2.250733e+003,3.772300e+001
2.252662e+003,3.809785e+001
2.254590e+003,3.837872e+001
2.256519e+003,3.768096e+001
2.258447e+003,3.590866e+001
2.260375e+003,3.175744e+001
2.262304e+003,2.722076e+001
2.264232e+003,2.667087e+001
2.266161e+003,2.837197e+001
2.268089e+003,2.550304e+001
2.270018e+003,1.909949e+001
2.271946e+003,1.984317e+001
2.273875e+003,2.930323e+001
2.275803e+003,3.545272e+001
2.277732e+003,3.648325e+001
2.279660e+003,3.636091e+001
2.281589e+003,3.324463e+001
2.283517e+003,3.247078e+001
2.285446e+003,3.724781e+001
2.287374e+003,4.113816e+001
2.289302e+003,4.257798e+001
2.291231e+003,4.190353e+001
2.293159e+003,3.624350e+001
2.295088e+003,3.168517e+001
2.297016e+003,3.529031e+001
2.298945e+003,4.176715e+001
2.300873e+003,4.443150e+001
2.302802e+003,4.413227e+001
2.304730e+003,4.191501e+001
2.306659e+003,3.836115e+001
2.308587e+003,3.875664e+001
2.310516e+003,4.396393e+001
2.312444e+003,4.557565e+001
2.314373e+003,4.282367e+001
2.316301e+003,4.107921e+001
2.318229e+003,4.100490e+001
2.320158e+003,4.104448e+001
2.322086e+003,4.081693e+001
2.324015e+003,4.092192e+001
2.325943e+003,4.132431e+001
2.327872e+003,4.243199e+001
2.329800e+003,4.555999e+001
2.331729e+003,4.796146e+001
2.333657e+003,4.811641e+001
2.335586e+003,4.672790e+001
2.337514e+003,4.306355e+001
2.339443e+003,3.927520e+001
2.341371e+003,3.952970e+001
2.343300e+003,4.085847e+001
2.345228e+003,3.582257e+001
2.347156e+003,2.726821e+001
2.349085e+003,2.431258e+001
2.351013e+003,2.675834e+001
2.352942e+003,3.030565e+001
2.354870e+003,3.520845e+001
2.356799e+003,3.982292e+001
2.358727e+003,4.574424e+001
2.360656e+003,4.632930e+001
2.362584e+003,3.834885e+001
2.364513e+003,3.434101e+001
2.366441e+003,3.814721e+001
2.368370e+003,4.066764e+001
2.370298e+003,3.807878e+001
2.372227e+003,3.615595e+001
2.374155e+003,3.757395e+001
2.376083e+003,3.983185e+001
2.378012e+003,4.307198e+001
2.379940e+003,4.502384e+001
2.381869e+003,4.406226e+001
2.383797e+003,4.100874e+001
2.385726e+003,3.407533e+001
2.387654e+003,2.756394e+001
2.389583e+003,2.860654e+001
2.391511e+003,3.413660e+001
2.393440e+003,3.845714e+001
2.395368e+003,4.193497e+001
2.397297e+003,4.739234e+001
2.399225e+003,5.419571e+001
2.401154e+003,5.232984e+001
2.403082e+003,3.978814e+001
2.405010e+003,3.566430e+001
2.406939e+003,4.282813e+001
2.408867e+003,4.261662e+001
2.410796e+003,3.132192e+001
2.412724e+003,2.754490e+001
2.414653e+003,3.707364e+001
2.416581e+003,4.331232e+001
2.418510e+003,4.000540e+001
2.420438e+003,3.746824e+001
2.422367e+003,3.894810e+001
2.424295e+003,4.090343e+001
2.426224e+003,4.262732e+001
2.428152e+003,4.387773e+001
2.430081e+003,4.383386e+001
2.432009e+003,4.422974e+001
2.433938e+003,4.721766e+001
2.435866e+003,4.975414e+001
2.437794e+003,4.880857e+001
2.439723e+003,4.671124e+001
2.441651e+003,4.567553e+001
2.443580e+003,4.536865e+001
2.445508e+003,4.580975e+001
2.447437e+003,4.632546e+001
2.449365e+003,4.420409e+001
2.451294e+003,4.102282e+001
2.453222e+003,4.471046e+001
2.455151e+003,5.284388e+001
2.457079e+003,5.287273e+001
2.459008e+003,4.543128e+001
2.460936e+003,4.165284e+001
2.462865e+003,4.243191e+001
2.464793e+003,4.250535e+001
2.466721e+003,4.136594e+001
2.468650e+003,4.117442e+001
2.470578e+003,4.214418e+001
2.472507e+003,4.304416e+001
2.474435e+003,4.351757e+001
2.476364e+003,4.504085e+001
2.478292e+003,4.854536e+001
2.480221e+003,5.115700e+001
2.482149e+003,5.336832e+001
2.484078e+003,5.262170e+001
2.486006e+003,4.566029e+001
2.487935e+003,3.979386e+001
2.489863e+003,3.673448e+001
2.491792e+003,3.597378e+001
2.493720e+003,3.838265e+001
2.495648e+003,4.138776e+001
2.497577e+003,4.467429e+001
2.499505e+003,4.668745e+001
2.501434e+003,4.533035e+001
2.503362e+003,4.351712e+001
2.505291e+003,4.395705e+001
2.507219e+003,4.488427e+001
2.509148e+003,4.404070e+001
2.511076e+003,4.304552e+001
2.513005e+003,4.417075e+001
2.514933e+003,4.621968e+001
2.516862e+003,4.925633e+001
2.518790e+003,5.085352e+001
2.520719e+003,4.358710e+001
2.522647e+003,3.233509e+001
2.524575e+003,3.091835e+001
2.526504e+003,3.697722e+001
2.528432e+003,4.163261e+001
2.530361e+003,4.480619e+001
2.532289e+003,4.560276e+001
2.534218e+003,4.441804e+001
2.536146e+003,4.378871e+001
2.538075e+003,4.380153e+001
2.540003e+003,4.422476e+001
2.541932e+003,4.517505e+001
2.543860e+003,4.557985e+001
2.545789e+003,4.554593e+001
2.547717e+003,4.365627e+001
2.549646e+003,3.931635e+001
2.551574e+003,3.993588e+001
2.553502e+003,4.737474e+001
2.555431e+003,5.138798e+001
2.557359e+003,4.939734e+001
2.559288e+003,4.733555e+001
2.561216e+003,4.384805e+001
2.563145e+003,4.446268e+001
2.565073e+003,5.199038e+001
2.567002e+003,5.644426e+001
2.568930e+003,5.531030e+001
2.570859e+003,5.366611e+001
2.572787e+003,5.234060e+001
2.574716e+003,5.171748e+001
2.576644e+003,5.356749e+001
2.578573e+003,5.341125e+001
2.580501e+003,4.831907e+001
2.582429e+003,4.377594e+001
2.584358e+003,4.030335e+001
2.586287e+003,3.939021e+001
2.588215e+003,4.383773e+001
2.590144e+003,4.710109e+001
2.592072e+003,4.566875e+001
2.594000e+003,4.306421e+001
2.595929e+003,3.985002e+001
2.597857e+003,3.749862e+001
2.599786e+003,3.781994e+001
2.601714e+003,3.779366e+001
2.603643e+003,3.307722e+001
2.605571e+003,3.120316e+001
2.607500e+003,4.163297e+001
2.609428e+003,5.125624e+001
2.611357e+003,4.830966e+001
2.613285e+003,4.293835e+001
2.615214e+003,4.355482e+001
2.617142e+003,4.533118e+001
2.619071e+003,4.389925e+001
2.620999e+003,4.188826e+001
2.622927e+003,4.090996e+001
2.624856e+003,4.118850e+001
2.626784e+003,4.405092e+001
2.628713e+003,4.718941e+001
2.630641e+003,4.835780e+001
2.632570e+003,4.796937e+001
2.634498e+003,4.519418e+001
2.636427e+003,4.238397e+001
2.638355e+003,4.317664e+001
2.640284e+003,4.496921e+001
2.642212e+003,4.405725e+001
2.644141e+003,4.220491e+001
2.646069e+003,4.178668e+001
2.647998e+003,4.241286e+001
2.649926e+003,4.462885e+001
2.651854e+003,4.659086e+001
2.653783e+003,4.262688e+001
2.655711e+003,3.822881e+001
2.657640e+003,4.503492e+001
2.659568e+003,5.575167e+001
2.661497e+003,5.569207e+001
2.663425e+003,5.016587e+001
2.665354e+003,5.046690e+001
2.667282e+003,5.315929e+001
2.669211e+003,5.004214e+001
2.671139e+003,4.439665e+001
2.673068e+003,4.279892e+001
2.674996e+003,4.350163e+001
2.676925e+003,4.231958e+001
2.678853e+003,4.060172e+001
2.680781e+003,4.264854e+001
2.682710e+003,4.620417e+001
2.684638e+003,4.435126e+001
2.686567e+003,4.056065e+001
2.688495e+003,4.440156e+001
2.690424e+003,5.104199e+001
2.692352e+003,4.697923e+001
2.694281e+003,3.733331e+001
2.696209e+003,3.548608e+001
2.698138e+003,3.860522e+001
2.700066e+003,4.004087e+001
2.701995e+003,4.044484e+001
2.703923e+003,4.018968e+001
2.705852e+003,4.062642e+001
2.707780e+003,4.760905e+001
2.709708e+003,5.661960e+001
2.711637e+003,5.398772e+001
2.713565e+003,4.564349e+001
2.715494e+003,4.594764e+001
2.717422e+003,5.115536e+001
2.719351e+003,5.506398e+001
2.721279e+003,5.723047e+001
2.723208e+003,5.539511e+001
2.725136e+003,5.183507e+001
2.727065e+003,5.264703e+001
2.728993e+003,5.465297e+001
2.730922e+003,4.871962e+001
2.732850e+003,4.133567e+001
2.734779e+003,4.551899e+001
2.736707e+003,5.515361e+001
2.738635e+003,6.059145e+001
2.740564e+003,6.215965e+001
2.742492e+003,5.914028e+001
2.744421e+003,5.378756e+001
2.746349e+003,4.829343e+001
2.748278e+003,4.389631e+001
2.750206e+003,4.344589e+001
2.752135e+003,4.435932e+001
2.754063e+003,4.273283e+001
2.755992e+003,4.028407e+001
2.757920e+003,3.877473e+001
2.759849e+003,3.835306e+001
2.761777e+003,3.961739e+001
2.763706e+003,4.160680e+001
2.765634e+003,4.463854e+001
2.767563e+003,4.633261e+001
2.769491e+003,4.221383e+001
2.771419e+003,3.754214e+001
2.773348e+003,3.539141e+001
2.775276e+003,3.708438e+001
2.777205e+003,4.959712e+001
2.779133e+003,5.942419e+001
2.781062e+003,5.085723e+001
2.782990e+003,3.992356e+001
2.784919e+003,3.718525e+001
2.786847e+003,3.913234e+001
2.788776e+003,4.726457e+001
2.790704e+003,5.426644e+001
2.792633e+003,5.540578e+001
2.794561e+003,5.430419e+001
2.796490e+003,5.095952e+001
2.798418e+003,4.918570e+001
2.800346e+003,5.298610e+001
2.802275e+003,5.439808e+001
2.804203e+003,4.577880e+001
2.806132e+003,3.986580e+001
2.808060e+003,4.417315e+001
2.809989e+003,4.818044e+001
2.811917e+003,4.814941e+001
2.813846e+003,4.908416e+001
2.815774e+003,5.488253e+001
2.817703e+003,5.590485e+001
2.819631e+003,4.284545e+001
2.821560e+003,3.634787e+001
2.823488e+003,4.294155e+001
2.825417e+003,4.854536e+001
2.827345e+003,5.102911e+001
2.829273e+003,5.336417e+001
2.831202e+003,5.541409e+001
2.833130e+003,5.985858e+001
2.835059e+003,6.897201e+001
2.836987e+003,7.541678e+001
2.838916e+003,7.879635e+001
2.840844e+003,7.984202e+001
2.842773e+003,7.813697e+001
2.844701e+003,8.116343e+001
2.846630e+003,9.050607e+001
2.848558e+003,9.838150e+001
2.850487e+003,1.049550e+002
2.852415e+003,1.063007e+002
2.854344e+003,1.029389e+002
2.856272e+003,9.988589e+001
2.858200e+003,9.720797e+001
2.860129e+003,9.355431e+001
2.862057e+003,8.933609e+001
2.863986e+003,8.716653e+001
2.865914e+003,8.653967e+001
2.867843e+003,8.819067e+001
2.869771e+003,8.867086e+001
2.871700e+003,7.460902e+001
2.873628e+003,5.780630e+001
2.875557e+003,6.669211e+001
2.877485e+003,8.359332e+001
2.879414e+003,7.845479e+001
2.881342e+003,6.829310e+001
2.883271e+003,7.333710e+001
2.885199e+003,8.157227e+001
2.887127e+003,7.899781e+001
2.889056e+003,7.657471e+001
2.890984e+003,8.622012e+001
2.892913e+003,9.474135e+001
2.894841e+003,9.171285e+001
2.896770e+003,8.832974e+001
2.898698e+003,8.791773e+001
2.900627e+003,9.303880e+001
2.902555e+003,1.060163e+002
2.904484e+003,1.212520e+002
2.906412e+003,1.346886e+002
2.908341e+003,1.558961e+002
2.910269e+003,1.886478e+002
2.912198e+003,2.288231e+002
2.914126e+003,2.793931e+002
2.916054e+003,3.261322e+002
2.917983e+003,3.692571e+002
2.919911e+003,3.950875e+002
2.921840e+003,4.013998e+002
2.923768e+003,3.868141e+002
2.925697e+003,3.490132e+002
2.927625e+003,3.134541e+002
2.929554e+003,2.814144e+002
2.931482e+003,2.635783e+002
2.933411e+003,2.580589e+002
2.935339e+003,2.470246e+002
2.937268e+003,2.343603e+002
2.939196e+003,2.423522e+002
2.941125e+003,2.595989e+002
2.943053e+003,2.578142e+002
2.944981e+003,2.476994e+002
2.946910e+003,2.506987e+002
2.948838e+003,2.520503e+002
2.950767e+003,2.238554e+002
2.952695e+003,1.946896e+002
2.954624e+003,1.879971e+002
2.956552e+003,1.918847e+002
2.958481e+003,2.041119e+002
2.960409e+003,2.147471e+002
2.962338e+003,2.228967e+002
2.964266e+003,2.197523e+002
2.966195e+003,1.965304e+002
2.968123e+003,1.746846e+002
2.970052e+003,1.581621e+002
2.971980e+003,1.512935e+002
2.973908e+003,1.591700e+002
2.975837e+003,1.579712e+002
2.977765e+003,1.428755e+002
2.979694e+003,1.356313e+002
2.981622e+003,1.425664e+002
2.983551e+003,1.328852e+002
2.985479e+003,1.064036e+002
2.987408e+003,1.019416e+002
2.989336e+003,1.142144e+002
2.991265e+003,1.080366e+002
2.993193e+003,9.161037e+001
2.995122e+003,9.534003e+001
2.997050e+003,1.090399e+002
2.998979e+003,1.096019e+002
3.000907e+003,1.077371e+002
3.002835e+003,1.227364e+002
3.004764e+003,1.352327e+002
3.006692e+003,1.189071e+002
3.008621e+003,1.018749e+002
3.010549e+003,1.033370e+002
3.012478e+003,1.077492e+002
3.014406e+003,1.056107e+002
3.016335e+003,1.075669e+002
3.018263e+003,1.182942e+002
3.020192e+003,1.323746e+002
3.022120e+003,1.505645e+002
3.024049e+003,1.646188e+002
3.025977e+003,1.694644e+002
3.027906e+003,1.871863e+002
3.029834e+003,2.219693e+002
3.031762e+003,2.394268e+002
3.033691e+003,2.413207e+002
3.035619e+003,2.527110e+002
3.037548e+003,2.690314e+002
3.039476e+003,2.616087e+002
3.041405e+003,2.433664e+002
3.043333e+003,2.353851e+002
3.045262e+003,2.504206e+002
3.047190e+003,3.056021e+002
3.049119e+003,3.902585e+002
3.051047e+003,5.159360e+002
3.052976e+003,6.340771e+002
3.054904e+003,7.237146e+002
3.056833e+003,7.786630e+002
3.058761e+003,7.845271e+002
3.060689e+003,7.773797e+002
3.062618e+003,7.784266e+002
3.064546e+003,7.377139e+002
3.066475e+003,6.433599e+002
3.068403e+003,5.460873e+002
3.070332e+003,4.500702e+002
3.072260e+003,3.610241e+002
3.074189e+003,2.787840e+002
3.076117e+003,2.173410e+002
3.078046e+003,1.753006e+002
3.079974e+003,1.468212e+002
3.081903e+003,1.288735e+002
3.083831e+003,1.172832e+002
3.085760e+003,1.101572e+002
3.087688e+003,1.079670e+002
3.089616e+003,1.048550e+002
3.091545e+003,9.080321e+001
3.093473e+003,8.192773e+001
3.095402e+003,9.536522e+001
3.097330e+003,1.018550e+002
3.099259e+003,8.875388e+001
3.101187e+003,7.977760e+001
3.103116e+003,8.755430e+001
3.105044e+003,8.401072e+001
3.106973e+003,6.658266e+001
3.108901e+003,6.138385e+001
3.110830e+003,6.919285e+001
3.112758e+003,7.247495e+001
3.114687e+003,7.195052e+001
3.116615e+003,7.318350e+001
3.118543e+003,7.385095e+001
3.120472e+003,6.737349e+001
3.122400e+003,5.973938e+001
3.124329e+003,5.997188e+001
3.126257e+003,5.948924e+001
3.128186e+003,4.813704e+001
3.130114e+003,4.130855e+001
3.132043e+003,5.178339e+001
3.133971e+003,5.756518e+001
3.135900e+003,4.979307e+001
3.137828e+003,4.550945e+001
3.139757e+003,4.623780e+001
3.141685e+003,5.222531e+001
3.143614e+003,6.403798e+001
3.145542e+003,6.528407e+001
3.147470e+003,5.801864e+001
3.149399e+003,5.564975e+001
3.151327e+003,5.618859e+001
3.153256e+003,5.494138e+001
3.155184e+003,5.460287e+001
3.157113e+003,6.127843e+001
3.159041e+003,6.661554e+001
3.160970e+003,6.418188e+001
3.162898e+003,6.006103e+001
3.164827e+003,5.507451e+001
3.166755e+003,5.290968e+001
3.168684e+003,5.510736e+001
3.170612e+003,5.545522e+001
3.172541e+003,5.299123e+001
3.174469e+003,4.830399e+001
3.176397e+003,4.157546e+001
3.178326e+003,4.220906e+001
3.180254e+003,4.704753e+001
3.182183e+003,4.603200e+001
3.184111e+003,4.323272e+001
3.186040e+003,4.677542e+001
3.187968e+003,4.983381e+001
3.189897e+003,4.542426e+001
3.191825e+003,4.098869e+001
3.193754e+003,3.903062e+001
3.195682e+003,4.100778e+001
3.197611e+003,4.846457e+001
3.199539e+003,5.408697e+001
3.201468e+003,5.660955e+001
3.203396e+003,5.904546e+001
3.205324e+003,6.152416e+001
3.207253e+003,5.836184e+001
3.209181e+003,5.142974e+001
3.211110e+003,4.616336e+001
3.213038e+003,4.148664e+001
3.214967e+003,3.390061e+001
3.216895e+003,2.851334e+001
3.218824e+003,3.158644e+001
3.220752e+003,3.371951e+001
3.222681e+003,2.730612e+001
3.224609e+003,2.516620e+001
3.226538e+003,3.070536e+001
3.228466e+003,3.483663e+001
3.230395e+003,3.646334e+001
3.232323e+003,3.356698e+001
3.234251e+003,2.711938e+001
3.236180e+003,2.717178e+001
3.238108e+003,3.069009e+001
3.240037e+003,3.207432e+001
3.241965e+003,3.187482e+001
3.243894e+003,2.907755e+001
3.245822e+003,2.760327e+001
3.247751e+003,3.184328e+001
3.249679e+003,3.313822e+001
3.251608e+003,2.336848e+001
3.253536e+003,2.225410e+001
3.255465e+003,3.240116e+001
3.257393e+003,3.516228e+001
3.259322e+003,2.984870e+001
3.261250e+003,3.007311e+001
3.263178e+003,3.383218e+001
3.265107e+003,3.549546e+001
3.267035e+003,3.610174e+001
3.268964e+003,3.905945e+001
3.270892e+003,3.813007e+001
3.272821e+003,2.340463e+001
3.274749e+003,1.552569e+001
3.276678e+003,2.450112e+001
3.278606e+003,3.133827e+001
3.280535e+003,3.358565e+001
3.282463e+003,3.085402e+001
3.284392e+003,2.440072e+001
3.286320e+003,2.613542e+001
3.288249e+003,3.158611e+001
3.290177e+003,2.737932e+001
3.292105e+003,2.086986e+001
3.294034e+003,1.983193e+001
3.295962e+003,2.043922e+001
3.297891e+003,1.955001e+001
3.299819e+003,2.201775e+001
3.301748e+003,3.078166e+001
3.303676e+003,3.277602e+001
3.305605e+003,2.350645e+001
3.307533e+003,2.626291e+001
3.309462e+003,3.733023e+001
3.311390e+003,2.928511e+001
3.313319e+003,1.553363e+001
3.315247e+003,2.245462e+001
3.317176e+003,3.235838e+001
3.319104e+003,2.882817e+001
3.321032e+003,2.493000e+001
3.322961e+003,2.754240e+001
3.324889e+003,2.859396e+001
3.326818e+003,2.665517e+001
3.328746e+003,2.641095e+001
3.330675e+003,2.787183e+001
3.332603e+003,2.515290e+001
3.334532e+003,2.059981e+001
3.336460e+003,2.277995e+001
3.338389e+003,2.561319e+001
3.340317e+003,2.110757e+001
3.342246e+003,1.712705e+001
3.344174e+003,1.732840e+001
3.346103e+003,2.088506e+001
3.348031e+003,2.885694e+001
3.349959e+003,3.515185e+001
3.351888e+003,3.961755e+001
3.353816e+003,3.613530e+001
3.355745e+003,2.849300e+001
3.357673e+003,2.948069e+001
3.359602e+003,3.241371e+001
3.361530e+003,2.809998e+001
3.363459e+003,2.200160e+001
3.365387e+003,1.574018e+001
3.367316e+003,1.138354e+001
3.369244e+003,8.744284e+000
3.371173e+003,1.169899e+001
3.373101e+003,2.016850e+001
3.375030e+003,2.368505e+001
3.376958e+003,2.387292e+001
3.378886e+003,2.912396e+001
3.380815e+003,3.313431e+001
3.382743e+003,2.447154e+001
3.384672e+003,1.853594e+001
3.386600e+003,2.989288e+001
3.388529e+003,3.455568e+001
3.390457e+003,2.637477e+001
3.392386e+003,1.929296e+001
3.394314e+003,1.443264e+001
3.396243e+003,1.589444e+001
3.398171e+003,2.156147e+001
3.400100e+003,2.889339e+001
3.402028e+003,3.308494e+001
3.403957e+003,2.585309e+001
3.405885e+003,1.825200e+001
3.407813e+003,1.304753e+001
3.409742e+003,1.379745e+001
3.411670e+003,2.234065e+001
3.413599e+003,2.818783e+001
3.415527e+003,3.095737e+001
3.417456e+003,3.226554e+001
3.419384e+003,3.111096e+001
3.421313e+003,2.125000e+001
3.423241e+003,1.397558e+001
3.425170e+003,2.186512e+001
3.427098e+003,2.605700e+001
3.429027e+003,1.875223e+001
3.430955e+003,1.827034e+001
3.432884e+003,2.685578e+001
3.434812e+003,2.612346e+001
3.436740e+003,1.979395e+001
3.438669e+003,2.322334e+001
3.440597e+003,2.925845e+001
3.442526e+003,3.248445e+001
3.444454e+003,3.091483e+001
3.446383e+003,2.100121e+001
3.448311e+003,1.593918e+001
3.450240e+003,1.978036e+001
3.452168e+003,2.447661e+001
3.454097e+003,2.923420e+001
3.456025e+003,2.854091e+001
3.457954e+003,2.593563e+001
3.459882e+003,2.713150e+001
3.461811e+003,2.815065e+001
3.463739e+003,2.651556e+001
3.465667e+003,2.471335e+001
3.467596e+003,2.332808e+001
3.469524e+003,2.265193e+001
3.471453e+003,2.242830e+001
3.473381e+003,1.981520e+001
3.475310e+003,1.644372e+001
3.477238e+003,1.522265e+001
3.479167e+003,1.574203e+001
3.481095e+003,1.977159e+001
3.483024e+003,2.092619e+001
3.484952e+003,1.580794e+001
3.486881e+003,1.339818e+001
3.488809e+003,1.452964e+001
3.490738e+003,2.142524e+001
3.492666e+003,3.044713e+001
3.494594e+003,3.299959e+001
3.496523e+003,3.247721e+001
3.498451e+003,3.015206e+001
3.500380e+003,2.845535e+001
3.502308e+003,2.857819e+001
3.504237e+003,2.615835e+001
3.506165e+003,2.059300e+001
3.508094e+003,1.401566e+001
3.510022e+003,9.034420e+000
3.511951e+003,1.349358e+001
3.513879e+003,2.050462e+001
3.515808e+003,2.714873e+001
3.517736e+003,2.815016e+001
3.519665e+003,2.014248e+001
3.521593e+003,1.821492e+001
3.523521e+003,2.364385e+001
3.525450e+003,2.464164e+001
3.527378e+003,2.353359e+001
3.529307e+003,2.476313e+001
3.531235e+003,2.674396e+001
3.533164e+003,2.924739e+001
3.535092e+003,2.953531e+001
3.537021e+003,2.502065e+001
3.538949e+003,2.585639e+001
3.540878e+003,3.111214e+001
3.542806e+003,2.760735e+001
3.544735e+003,2.169865e+001
3.546663e+003,2.593851e+001
3.548592e+003,2.898144e+001
3.550520e+003,2.197753e+001
3.552448e+003,1.968048e+001
3.554377e+003,2.743320e+001
3.556305e+003,2.731525e+001
3.558234e+003,2.117112e+001
3.560162e+003,1.886880e+001
3.562091e+003,1.852633e+001
3.564019e+003,1.783740e+001
3.565948e+003,1.778705e+001
3.567876e+003,1.961763e+001
3.569805e+003,1.999905e+001
3.571733e+003,1.874166e+001
3.573662e+003,2.143632e+001
3.575590e+003,2.543305e+001
3.577519e+003,2.186323e+001
3.579447e+003,1.767403e+001
3.581376e+003,1.819739e+001
3.583304e+003,2.080086e+001
3.585233e+003,2.587452e+001
3.587161e+003,2.579212e+001
3.589090e+003,2.122212e+001
3.591018e+003,2.389036e+001
3.592947e+003,2.834341e+001
3.594875e+003,2.364527e+001
3.596803e+003,2.133521e+001
3.598732e+003,3.241486e+001
3.600660e+003,3.624686e+001
3.602589e+003,3.071732e+001
3.604517e+003,2.426843e+001
3.606446e+003,1.763545e+001
3.608374e+003,9.390130e+000
3.610303e+003,4.671546e+000
3.612231e+003,1.053793e+001
3.614160e+003,1.528436e+001
3.616088e+003,1.563294e+001
3.618017e+003,2.120917e+001
3.619945e+003,3.081676e+001
3.621874e+003,2.864009e+001
3.623802e+003,2.368649e+001
3.625730e+003,2.869864e+001
3.627659e+003,3.249200e+001
3.629587e+003,2.915243e+001
3.631516e+003,2.836139e+001
3.633444e+003,3.124146e+001
3.635373e+003,2.932275e+001
3.637301e+003,2.482122e+001
3.639230e+003,2.038734e+001
3.641158e+003,1.882017e+001
3.643087e+003,2.644994e+001
3.645015e+003,2.643533e+001
3.646944e+003,1.573329e+001
3.648872e+003,1.550422e+001
3.650801e+003,2.196961e+001
3.652729e+003,2.043603e+001
3.654657e+003,1.661251e+001
3.656586e+003,1.401705e+001
3.658514e+003,1.258565e+001
3.660443e+003,1.212159e+001
3.662371e+003,1.513614e+001
3.664300e+003,2.075674e+001
3.666228e+003,2.532502e+001
3.668157e+003,2.875063e+001
3.670085e+003,3.270383e+001
3.672014e+003,3.099034e+001
3.673942e+003,2.053130e+001
3.675871e+003,1.783385e+001
3.677799e+003,2.261855e+001
3.679728e+003,2.100945e+001
3.681656e+003,1.845919e+001
3.683584e+003,2.420661e+001
3.685513e+003,2.519611e+001
3.687441e+003,1.447543e+001
3.689370e+003,1.571636e+001
3.691298e+003,2.964275e+001
3.693227e+003,3.569580e+001
3.695155e+003,3.424633e+001
3.697084e+003,2.029908e+001
3.699012e+003,1.249216e+001
3.700941e+003,2.016897e+001
3.702869e+003,2.534316e+001
3.704798e+003,2.626495e+001
3.706726e+003,2.971157e+001
3.708655e+003,3.191828e+001
3.710583e+003,2.530995e+001
3.712511e+003,2.049396e+001
3.714440e+003,2.233840e+001
3.716368e+003,2.636706e+001
3.718297e+003,3.129312e+001
3.720225e+003,2.376424e+001
3.722154e+003,1.391461e+001
3.724082e+003,1.662980e+001
3.726011e+003,2.152165e+001
3.727939e+003,2.502644e+001
3.729868e+003,2.657045e+001
3.731796e+003,2.612453e+001
3.733725e+003,2.365648e+001
3.735653e+003,2.166635e+001
3.737582e+003,2.440997e+001
3.739510e+003,2.672850e+001
3.741438e+003,2.709399e+001
3.743367e+003,2.381335e+001
3.745295e+003,1.782143e+001
3.747224e+003,1.784320e+001
3.749152e+003,1.832010e+001
3.751081e+003,9.970587e+000
3.753009e+003,6.553030e+000
3.754938e+003,1.303716e+001
3.756866e+003,2.251256e+001
3.758795e+003,3.166592e+001
3.760723e+003,2.513370e+001
3.762652e+003,1.647502e+001
3.764580e+003,1.898794e+001
3.766509e+003,2.098823e+001
3.768437e+003,1.975068e+001
3.770365e+003,1.744506e+001
3.772294e+003,1.532628e+001
3.774222e+003,1.773497e+001
3.776151e+003,2.040194e+001
3.778079e+003,1.863756e+001
3.780008e+003,2.181284e+001
3.781936e+003,3.143091e+001
3.783865e+003,3.007223e+001
3.785793e+003,2.393875e+001
3.787722e+003,2.847190e+001
3.789650e+003,2.976336e+001
3.791579e+003,1.577730e+001
3.793507e+003,1.610856e+001
3.795436e+003,3.100201e+001
3.797364e+003,3.102601e+001
3.799292e+003,2.638697e+001
3.801221e+003,3.466140e+001
3.803149e+003,3.539295e+001
3.805078e+003,1.747340e+001
3.807006e+003,1.011380e+001
3.808935e+003,1.288602e+001
3.810863e+003,2.212631e+001
3.812792e+003,3.004060e+001
3.814720e+003,2.939157e+001
3.816649e+003,2.593311e+001
3.818577e+003,1.986120e+001
3.820506e+003,1.990589e+001
3.822434e+003,2.293830e+001
3.824363e+003,2.083826e+001
3.826291e+003,2.167079e+001
3.828219e+003,3.132353e+001
3.830148e+003,3.556315e+001
3.832076e+003,3.299820e+001
3.834005e+003,2.609756e+001
3.835933e+003,1.991541e+001
3.837862e+003,2.054658e+001
3.839790e+003,2.346913e+001
3.841719e+003,2.784193e+001
3.843647e+003,2.776172e+001
3.845576e+003,2.389554e+001
3.847504e+003,1.533565e+001
3.849433e+003,9.503981e+000
3.851361e+003,1.397425e+001
3.853290e+003,1.527698e+001
3.855218e+003,1.308243e+001
3.857146e+003,2.091999e+001
3.859075e+003,2.863678e+001
3.861003e+003,1.913865e+001
3.862932e+003,1.168180e+001
3.864860e+003,1.373740e+001
3.866789e+003,1.504075e+001
3.868717e+003,1.589791e+001
3.870646e+003,1.823134e+001
3.872574e+003,2.100842e+001
3.874503e+003,2.425412e+001
3.876431e+003,2.434905e+001
3.878360e+003,2.148206e+001
3.880288e+003,2.995765e+001
3.882217e+003,3.778734e+001
3.884145e+003,2.463892e+001
3.886073e+003,1.593823e+001
3.888002e+003,1.962643e+001
3.889930e+003,2.205965e+001
3.891859e+003,2.370431e+001
3.893787e+003,2.833280e+001
3.895716e+003,3.026936e+001
3.897644e+003,2.503063e+001
3.899573e+003,2.496212e+001
3.901501e+003,2.988097e+001
3.903430e+003,2.575676e+001
3.905358e+003,1.925635e+001
3.907287e+003,1.410785e+001
3.909215e+003,1.649902e+001
3.911144e+003,2.700770e+001
3.913072e+003,3.390220e+001
3.915000e+003,3.598885e+001
3.916929e+003,2.901265e+001
3.918857e+003,2.288489e+001
3.920786e+003,2.168552e+001
3.922714e+003,2.275575e+001
3.924643e+003,2.430375e+001
3.926571e+003,1.956732e+001
3.928500e+003,1.555542e+001
3.930428e+003,1.598442e+001
3.932357e+003,2.110199e+001
3.934285e+003,2.939262e+001
3.936214e+003,2.950162e+001
3.938142e+003,2.548208e+001
3.940071e+003,1.926728e+001
3.941999e+003,1.497508e+001
3.943927e+003,1.358601e+001
3.945856e+003,1.509183e+001
3.947784e+003,1.808338e+001
3.949713e+003,2.046840e+001
3.951641e+003,2.347018e+001
3.953570e+003,2.764160e+001
3.955498e+003,2.915608e+001
3.957427e+003,2.800020e+001
3.959355e+003,2.109293e+001
3.961284e+003,1.800132e+001
3.963212e+003,2.741573e+001
3.965141e+003,2.767549e+001
3.967069e+003,2.033984e+001
3.968998e+003,1.486371e+001
3.970926e+003,1.430640e+001
3.972854e+003,2.319328e+001
3.974783e+003,2.830683e+001
3.976711e+003,2.906909e+001
3.978640e+003,3.239869e+001
3.980568e+003,3.401326e+001
3.982497e+003,2.809448e+001
3.984425e+003,2.458148e+001
3.986354e+003,2.545391e+001
3.988282e+003,2.481812e+001
3.990211e+003,2.325222e+001
3.992139e+003,2.098214e+001
3.994068e+003,1.937287e+001
3.995996e+003,1.871741e+001
3.997925e+003,1.525469e+001
3.999853e+003,1.350293e+001
4.001781e+003,2.542135e+001
4.003710e+003,3.088436e+001
4.005638e+003,2.307440e+001
4.007567e+003,2.116838e+001
4.009495e+003,2.214291e+001
4.011424e+003,1.454848e+001
4.013352e+003,1.221000e+001
4.015281e+003,2.642622e+001
4.017209e+003,3.066739e+001
4.019138e+003,2.714374e+001
4.021066e+003,1.993579e+001
4.022995e+003,1.595631e+001
4.024923e+003,1.904915e+001
4.026852e+003,1.808188e+001
4.028780e+003,1.403676e+001
4.030708e+003,1.194300e+001
4.032637e+003,1.257109e+001
4.034565e+003,1.676618e+001
4.036494e+003,2.301318e+001
4.038422e+003,2.948830e+001
4.040351e+003,3.036262e+001
4.042279e+003,2.656699e+001
4.044208e+003,1.315484e+001
4.046136e+003,1.288832e+001
4.048065e+003,2.257958e+001
4.049993e+003,2.559588e+001
4.051922e+003,2.281304e+001
4.053850e+003,1.154532e+001
4.055779e+003,1.522567e+001
4.057707e+003,3.042622e+001
4.059635e+003,3.169922e+001
4.061564e+003,2.414861e+001
4.063492e+003,6.900623e+000
4.065421e+003,2.204144e+000
4.067349e+003,9.439087e+000
4.069278e+003,1.335006e+001
4.071206e+003,1.675473e+001
4.073135e+003,2.396897e+001
4.075063e+003,2.343656e+001
4.076992e+003,1.621225e+001
4.078920e+003,8.284653e+000
4.080849e+003,6.797987e+000
4.082777e+003,2.040520e+001
4.084706e+003,2.337123e+001
4.086634e+003,1.770128e+001
4.088563e+003,1.914500e+001
4.090491e+003,2.260677e+001
4.092419e+003,2.606916e+001
4.094348e+003,2.304227e+001
4.096276e+003,1.602159e+001
4.098205e+003,1.655731e+001
4.100133e+003,1.918017e+001
4.102062e+003,2.172994e+001
4.103990e+003,2.247805e+001
4.105919e+003,2.135884e+001
4.107847e+003,1.723815e+001
4.109776e+003,1.394021e+001
4.111704e+003,1.459844e+001
4.113633e+003,1.150425e+001
4.115561e+003,8.398234e+000
4.117490e+003,1.685810e+001
4.119418e+003,2.323995e+001
4.121347e+003,2.188516e+001
4.123275e+003,2.305771e+001
4.125204e+003,2.463992e+001
4.127132e+003,1.919658e+001
4.129061e+003,1.783568e+001
4.130989e+003,2.360658e+001
4.132917e+003,2.835278e+001
4.134846e+003,3.015091e+001
4.136774e+003,2.369028e+001
4.138703e+003,2.286455e+001
4.140631e+003,3.138488e+001
4.142560e+003,2.683662e+001
4.144488e+003,1.996102e+001
4.146417e+003,2.635554e+001
4.148345e+003,2.556554e+001
4.150273e+003,1.498450e+001
4.152202e+003,2.025218e+001
4.154130e+003,2.686115e+001
4.156059e+003,1.800397e+001
4.157987e+003,1.760920e+001
4.159916e+003,2.510548e+001
4.161844e+003,2.207422e+001
4.163773e+003,1.676568e+001
4.165701e+003,1.289139e+001
4.167630e+003,1.777572e+001
4.169558e+003,2.537957e+001
4.171487e+003,1.401490e+001
4.173415e+003,6.071192e+000
4.175344e+003,1.134965e+001
4.177272e+003,1.489358e+001
4.179201e+003,1.654594e+001
4.181129e+003,1.687832e+001
4.183058e+003,1.958012e+001
4.184986e+003,2.528625e+001
4.186915e+003,2.454467e+001
4.188843e+003,2.124879e+001
4.190771e+003,2.084903e+001
4.192700e+003,1.721254e+001
4.194628e+003,1.009574e+001
4.196557e+003,1.029600e+001
4.198485e+003,1.237770e+001
4.200414e+003,1.218533e+001
4.202342e+003,1.309154e+001
4.204271e+003,1.576622e+001
4.206199e+003,2.467429e+001
4.208127e+003,2.948013e+001
4.210056e+003,2.379983e+001
4.211984e+003,2.080142e+001
4.213913e+003,1.882173e+001
4.215841e+003,9.769683e+000
4.217770e+003,8.823175e+000
4.219698e+003,2.184394e+001
4.221627e+003,2.274331e+001
4.223555e+003,1.904459e+001
4.225484e+003,1.917128e+001
4.227412e+003,1.647671e+001
4.229341e+003,1.166678e+001
4.231269e+003,1.856494e+001
4.233198e+003,2.351513e+001
4.235126e+003,1.193000e+001
4.237055e+003,1.614032e+001
4.238983e+003,2.747561e+001
4.240912e+003,1.705476e+001
4.242840e+003,1.541295e+001
4.244769e+003,3.535490e+001
4.246697e+003,3.054781e+001
4.248625e+003,1.816809e+001
4.250554e+003,1.635450e+001
