1.159199e+002,2.074733e+002
1.178484e+002,2.224971e+002
1.197769e+002,2.317616e+002
1.217053e+002,2.348011e+002
1.236338e+002,2.349150e+002
1.255623e+002,2.321639e+002
1.274907e+002,2.266021e+002
1.294192e+002,2.187109e+002
1.313477e+002,2.057818e+002
1.332761e+002,1.933031e+002
1.352046e+002,1.833624e+002
1.371331e+002,1.765752e+002
1.390615e+002,1.681321e+002
1.409900e+002,1.523778e+002
1.429185e+002,1.346812e+002
1.448469e+002,1.260431e+002
1.467754e+002,1.307453e+002
1.487039e+002,1.400806e+002
1.506323e+002,1.537028e+002
1.525608e+002,1.734753e+002
1.544893e+002,1.846268e+002
1.564177e+002,1.813081e+002
1.583462e+002,1.670418e+002
1.602747e+002,1.581632e+002
1.622031e+002,1.593282e+002
1.641316e+002,1.611188e+002
1.660601e+002,1.584212e+002
1.679885e+002,1.491809e+002
1.699170e+002,1.407448e+002
1.718455e+002,1.348065e+002
1.737739e+002,1.312916e+002
1.757024e+002,1.267115e+002
1.776309e+002,1.178162e+002
1.795593e+002,1.096004e+002
1.814878e+002,1.061719e+002
1.834163e+002,1.144385e+002
1.853447e+002,1.203878e+002
1.872732e+002,1.207000e+002
1.892017e+002,1.159977e+002
1.911301e+002,1.115612e+002
1.930586e+002,1.088807e+002
1.949871e+002,1.067389e+002
1.969155e+002,1.034705e+002
1.988440e+002,9.808444e+001
2.007725e+002,9.268884e+001
2.027009e+002,8.706484e+001
2.046294e+002,8.068172e+001
2.065579e+002,7.745395e+001
2.084864e+002,7.930219e+001
2.104148e+002,8.432178e+001
2.123433e+002,8.831391e+001
2.142718e+002,9.039831e+001
2.162002e+002,9.244143e+001
2.181287e+002,9.507475e+001
2.200572e+002,9.816996e+001
2.219856e+002,1.021729e+002
2.239141e+002,1.088396e+002
2.258426e+002,1.163286e+002
2.277710e+002,1.204678e+002
2.296995e+002,1.191223e+002
2.316280e+002,1.167195e+002
2.335564e+002,1.153875e+002
2.354849e+002,1.163091e+002
2.374134e+002,1.168665e+002
2.393418e+002,1.158779e+002
2.412703e+002,1.145371e+002
2.431988e+002,1.154251e+002
2.451272e+002,1.236154e+002
2.470557e+002,1.301936e+002
2.489842e+002,1.299325e+002
2.509126e+002,1.187522e+002
2.528411e+002,1.091237e+002
2.547696e+002,1.042776e+002
2.566980e+002,1.023964e+002
2.586265e+002,9.872906e+001
2.605550e+002,8.911142e+001
2.624834e+002,8.051910e+001
2.644119e+002,7.731837e+001
2.663404e+002,8.028763e+001
2.682688e+002,8.421782e+001
2.701973e+002,8.942673e+001
2.721258e+002,9.523164e+001
2.740542e+002,9.773563e+001
2.759827e+002,9.652467e+001
2.779112e+002,9.257200e+001
2.798396e+002,8.462283e+001
2.817681e+002,7.137375e+001
2.836966e+002,6.163317e+001
2.856250e+002,5.912243e+001
2.875535e+002,6.207214e+001
2.894820e+002,6.347731e+001
2.914104e+002,6.324588e+001
2.933389e+002,6.193934e+001
2.952674e+002,5.928341e+001
2.971958e+002,5.458634e+001
2.991243e+002,5.173569e+001
3.010528e+002,5.217907e+001
3.029813e+002,5.492048e+001
3.049097e+002,5.689915e+001
3.068382e+002,5.934533e+001
3.087667e+002,5.966657e+001
3.106951e+002,5.557397e+001
3.126236e+002,4.417603e+001
3.145521e+002,3.795407e+001
3.164805e+002,4.097462e+001
3.184090e+002,4.946522e+001
3.203375e+002,5.540487e+001
3.222659e+002,5.830787e+001
3.241944e+002,5.938428e+001
3.261229e+002,5.903241e+001
3.280513e+002,5.628035e+001
3.299798e+002,5.460437e+001
3.319083e+002,5.400444e+001
3.338367e+002,5.450137e+001
3.357652e+002,5.615692e+001
3.376937e+002,6.015300e+001
3.396221e+002,6.324706e+001
3.415506e+002,6.405825e+001
3.434791e+002,6.187702e+001
3.454075e+002,6.083737e+001
3.473360e+002,6.074104e+001
3.492645e+002,6.196463e+001
3.511929e+002,6.493394e+001
3.531214e+002,7.134821e+001
3.550499e+002,7.623421e+001
3.569783e+002,7.778958e+001
3.589068e+002,7.605279e+001
3.608353e+002,7.531845e+001
3.627637e+002,7.535516e+001
3.646922e+002,7.664499e+001
3.666207e+002,7.959403e+001
3.685491e+002,8.568114e+001
3.704776e+002,9.027847e+001
3.724061e+002,9.235878e+001
3.743345e+002,9.235681e+001
3.762630e+002,9.229601e+001
3.781915e+002,9.329397e+001
3.801199e+002,9.282941e+001
3.820484e+002,8.932999e+001
3.839769e+002,8.026893e+001
3.859053e+002,7.436450e+001
3.878338e+002,7.428017e+001
3.897623e+002,7.690817e+001
3.916907e+002,7.710274e+001
3.936192e+002,7.341910e+001
3.955477e+002,6.971722e+001
3.974761e+002,6.703680e+001
3.994046e+002,6.539473e+001
4.013331e+002,6.519572e+001
4.032615e+002,6.856442e+001
4.051900e+002,7.199229e+001
4.071185e+002,7.228479e+001
4.090469e+002,6.816204e+001
4.109754e+002,6.499290e+001
4.129039e+002,6.435899e+001
4.148323e+002,6.590230e+001
4.167608e+002,6.726582e+001
4.186893e+002,6.793021e+001
4.206177e+002,6.884086e+001
4.225462e+002,7.090464e+001
4.244747e+002,7.452724e+001
4.264032e+002,7.642244e+001
4.283316e+002,7.468427e+001
4.302601e+002,7.133929e+001
4.321886e+002,6.974144e+001
4.341170e+002,7.010458e+001
4.360455e+002,7.150770e+001
4.379740e+002,7.456638e+001
4.399024e+002,7.908009e+001
4.418309e+002,8.179292e+001
4.437594e+002,8.058404e+001
4.456878e+002,7.879615e+001
4.476163e+002,7.875329e+001
4.495448e+002,8.058195e+001
4.514732e+002,8.317046e+001
4.534017e+002,8.783915e+001
4.553302e+002,9.314933e+001
4.572586e+002,9.560714e+001
4.591871e+002,9.287836e+001
4.611156e+002,8.949159e+001
4.630440e+002,8.645914e+001
4.649725e+002,8.379393e+001
4.669010e+002,8.148280e+001
4.688294e+002,7.750427e+001
4.707579e+002,7.523214e+001
4.726864e+002,7.743534e+001
4.746148e+002,9.124458e+001
4.765433e+002,1.010644e+002
4.784718e+002,1.011322e+002
4.804002e+002,9.629922e+001
4.823287e+002,9.915123e+001
4.842572e+002,1.162270e+002
4.861856e+002,1.334844e+002
4.881141e+002,1.462489e+002
4.900426e+002,1.548275e+002
4.919710e+002,1.562472e+002
4.938995e+002,1.440517e+002
4.958280e+002,1.288256e+002
4.977564e+002,1.204309e+002
4.996849e+002,1.213525e+002
5.016134e+002,1.216334e+002
5.035418e+002,1.175681e+002
5.054703e+002,1.105544e+002
5.073988e+002,1.065552e+002
5.093272e+002,1.042592e+002
5.112557e+002,1.055616e+002
5.131842e+002,1.102154e+002
5.151127e+002,1.178368e+002
5.170411e+002,1.333981e+002
5.189696e+002,1.618663e+002
5.208981e+002,1.960786e+002
5.228265e+002,2.327304e+002
5.247550e+002,2.805489e+002
5.266835e+002,3.137993e+002
5.286119e+002,3.268951e+002
5.305404e+002,3.226066e+002
5.324689e+002,3.050506e+002
5.343973e+002,2.611568e+002
5.363258e+002,2.183112e+002
5.382543e+002,1.839659e+002
5.401827e+002,1.589648e+002
5.421112e+002,1.372012e+002
5.440397e+002,1.165478e+002
5.459681e+002,1.013426e+002
5.478966e+002,9.490266e+001
5.498251e+002,1.009549e+002
5.517535e+002,1.035207e+002
5.536820e+002,9.830432e+001
5.556105e+002,8.958484e+001
5.575389e+002,8.418118e+001
5.594674e+002,8.279047e+001
5.613959e+002,8.261219e+001
5.633243e+002,8.342729e+001
5.652528e+002,8.495173e+001
5.671813e+002,8.592831e+001
5.691097e+002,8.556815e+001
5.710382e+002,8.524856e+001
5.729667e+002,8.548248e+001
5.748951e+002,8.628434e+001
5.768236e+002,8.727792e+001
5.787521e+002,8.953889e+001
5.806805e+002,9.112037e+001
5.826090e+002,9.022511e+001
5.845375e+002,8.435307e+001
5.864659e+002,8.085377e+001
5.883944e+002,8.230051e+001
5.903229e+002,8.622544e+001
5.922513e+002,8.765939e+001
5.941798e+002,8.530993e+001
5.961083e+002,8.333364e+001
5.980367e+002,8.412674e+001
5.999652e+002,8.729932e+001
6.018937e+002,8.769186e+001
6.038221e+002,8.200279e+001
6.057506e+002,7.658845e+001
6.076791e+002,7.457131e+001
6.096075e+002,7.595607e+001
6.115360e+002,7.689421e+001
6.134645e+002,7.449044e+001
6.153929e+002,7.330305e+001
6.173214e+002,7.728542e+001
6.192499e+002,9.214060e+001
6.211783e+002,1.012934e+002
6.231068e+002,1.011998e+002
6.250353e+002,9.585839e+001
6.269637e+002,9.122586e+001
6.288922e+002,8.707374e+001
6.308207e+002,8.406794e+001
6.327491e+002,8.273425e+001
6.346776e+002,8.271984e+001
6.366061e+002,8.281477e+001
6.385345e+002,8.095178e+001
6.404630e+002,8.114426e+001
6.423915e+002,8.733974e+001
6.443199e+002,9.833550e+001
6.462484e+002,1.033726e+002
6.481769e+002,9.609274e+001
6.501053e+002,8.799720e+001
6.520338e+002,8.549167e+001
6.539623e+002,9.098198e+001
6.558907e+002,9.549075e+001
6.578192e+002,9.923216e+001
6.597477e+002,1.018144e+002
6.616761e+002,1.027110e+002
6.636046e+002,1.019444e+002
6.655331e+002,1.000659e+002
6.674615e+002,9.557418e+001
6.693900e+002,9.053332e+001
6.713185e+002,8.769763e+001
6.732469e+002,8.965253e+001
6.751754e+002,9.100444e+001
6.771039e+002,8.948555e+001
6.790323e+002,8.707336e+001
6.809608e+002,8.908322e+001
6.828893e+002,9.874748e+001
6.848177e+002,1.073463e+002
6.867462e+002,1.112130e+002
6.886747e+002,1.105635e+002
6.906031e+002,1.102253e+002
6.925316e+002,1.085469e+002
6.944601e+002,1.086662e+002
6.963885e+002,1.148682e+002
6.983170e+002,1.264332e+002
7.002455e+002,1.303864e+002
7.021740e+002,1.190947e+002
7.041024e+002,1.056172e+002
7.060309e+002,9.744524e+001
7.079594e+002,9.603354e+001
7.098878e+002,9.560469e+001
7.118163e+002,9.677966e+001
7.137448e+002,9.818097e+001
7.156732e+002,9.871191e+001
7.176017e+002,9.852175e+001
7.195302e+002,9.734363e+001
7.214586e+002,9.320083e+001
7.233871e+002,8.910416e+001
7.253156e+002,8.834332e+001
7.272440e+002,9.374834e+001
7.291725e+002,9.780306e+001
7.311010e+002,9.813274e+001
7.330294e+002,9.707464e+001
7.349579e+002,9.883134e+001
7.368864e+002,1.040512e+002
7.388149e+002,1.099671e+002
7.407433e+002,1.122545e+002
7.426718e+002,1.146263e+002
7.446003e+002,1.266957e+002
7.465287e+002,1.590215e+002
7.484572e+002,1.890312e+002
7.503857e+002,2.182286e+002
7.523141e+002,2.425235e+002
7.542426e+002,2.470488e+002
7.561711e+002,2.217658e+002
7.580995e+002,1.932688e+002
7.600280e+002,1.699548e+002
7.619565e+002,1.514838e+002
7.638849e+002,1.378888e+002
7.658134e+002,1.335706e+002
7.677419e+002,1.299971e+002
7.696703e+002,1.235814e+002
7.715988e+002,1.144672e+002
7.735273e+002,1.096130e+002
7.754557e+002,1.102091e+002
7.773842e+002,1.138045e+002
7.793127e+002,1.196823e+002
7.812411e+002,1.276905e+002
7.831696e+002,1.364879e+002
7.850981e+002,1.422874e+002
7.870266e+002,1.521967e+002
7.889550e+002,1.742702e+002
7.908835e+002,2.128035e+002
7.928120e+002,2.331927e+002
7.947404e+002,2.212657e+002
7.966689e+002,2.028198e+002
7.985974e+002,1.930790e+002
8.005258e+002,1.920459e+002
8.024543e+002,1.869190e+002
8.043828e+002,1.701009e+002
8.063112e+002,1.527532e+002
8.082397e+002,1.412564e+002
8.101682e+002,1.377532e+002
8.120966e+002,1.336789e+002
8.140251e+002,1.282476e+002
8.159536e+002,1.229349e+002
8.178820e+002,1.184297e+002
8.198105e+002,1.146715e+002
8.217390e+002,1.127164e+002
8.236674e+002,1.146408e+002
8.255959e+002,1.171739e+002
8.275244e+002,1.185100e+002
8.294528e+002,1.184387e+002
8.313813e+002,1.175077e+002
8.333098e+002,1.134684e+002
8.352382e+002,1.101138e+002
8.371667e+002,1.094875e+002
8.390952e+002,1.111269e+002
8.410236e+002,1.184021e+002
8.429521e+002,1.305586e+002
8.448806e+002,1.503136e+002
8.468090e+002,1.799270e+002
8.487375e+002,2.215604e+002
8.506660e+002,2.683278e+002
8.525944e+002,3.395401e+002
8.545229e+002,4.016623e+002
8.564514e+002,4.262551e+002
8.583798e+002,4.136505e+002
8.603083e+002,3.851299e+002
8.622368e+002,3.303306e+002
8.641652e+002,2.717510e+002
8.660937e+002,2.225856e+002
8.680222e+002,1.828848e+002
8.699506e+002,1.536536e+002
8.718791e+002,1.380742e+002
8.738076e+002,1.292146e+002
8.757360e+002,1.240311e+002
8.776645e+002,1.229862e+002
8.795930e+002,1.221416e+002
8.815214e+002,1.219151e+002
8.834499e+002,1.212866e+002
8.853784e+002,1.183360e+002
8.873068e+002,1.129029e+002
8.892353e+002,1.121907e+002
8.911638e+002,1.219292e+002
8.930922e+002,1.323058e+002
8.950207e+002,1.372093e+002
8.969492e+002,1.352666e+002
8.988776e+002,1.406303e+002
9.008061e+002,1.600419e+002
9.027346e+002,1.799958e+002
9.046630e+002,1.942320e+002
9.065915e+002,2.037054e+002
9.085200e+002,2.114372e+002
9.104484e+002,2.197351e+002
9.123769e+002,2.238284e+002
9.143054e+002,2.205703e+002
9.162338e+002,2.104280e+002
9.181623e+002,2.022557e+002
9.200908e+002,1.877278e+002
9.220192e+002,1.837305e+002
9.239477e+002,2.015367e+002
9.258762e+002,2.355252e+002
9.278046e+002,2.656390e+002
9.297331e+002,2.943442e+002
9.316616e+002,3.126282e+002
9.335900e+002,3.176194e+002
9.355185e+002,3.098576e+002
9.374470e+002,2.893936e+002
9.393754e+002,2.409822e+002
9.413039e+002,1.996649e+002
9.432324e+002,1.714220e+002
9.451608e+002,1.535416e+002
9.470893e+002,1.408852e+002
9.490178e+002,1.325601e+002
9.509462e+002,1.302925e+002
9.528747e+002,1.374198e+002
9.548032e+002,1.496523e+002
9.567316e+002,1.635119e+002
9.586601e+002,1.813537e+002
9.605886e+002,1.924913e+002
9.625170e+002,1.956739e+002
9.644455e+002,1.915128e+002
9.663740e+002,1.787231e+002
9.683024e+002,1.511942e+002
9.702309e+002,1.304785e+002
9.721594e+002,1.178253e+002
9.740878e+002,1.110867e+002
9.760163e+002,1.110188e+002
9.779448e+002,1.169543e+002
9.798733e+002,1.211219e+002
9.818018e+002,1.219629e+002
9.837302e+002,1.212064e+002
9.856587e+002,1.189667e+002
9.875872e+002,1.151898e+002
9.895156e+002,1.134267e+002
9.914441e+002,1.155538e+002
9.933726e+002,1.175348e+002
9.953010e+002,1.197079e+002
9.972295e+002,1.209075e+002
9.991580e+002,1.162910e+002
1.001086e+003,1.005378e+002
1.003015e+003,9.002306e+001
1.004943e+003,9.543797e+001
1.006872e+003,1.081855e+002
1.008800e+003,1.145013e+002
1.010729e+003,1.106541e+002
1.012657e+003,1.088918e+002
1.014586e+003,1.125086e+002
1.016514e+003,1.183209e+002
1.018443e+003,1.231393e+002
1.020371e+003,1.271354e+002
1.022300e+003,1.294952e+002
1.024228e+003,1.301733e+002
1.026156e+003,1.292492e+002
1.028085e+003,1.252951e+002
1.030013e+003,1.187972e+002
1.031942e+003,1.159740e+002
1.033870e+003,1.206265e+002
1.035799e+003,1.253827e+002
1.037727e+003,1.269467e+002
1.039656e+003,1.254906e+002
1.041584e+003,1.236342e+002
1.043513e+003,1.176628e+002
1.045441e+003,1.156859e+002
1.047370e+003,1.217048e+002
1.049298e+003,1.326956e+002
1.051227e+003,1.415075e+002
1.053155e+003,1.474532e+002
1.055083e+003,1.536142e+002
1.057012e+003,1.630096e+002
1.058940e+003,1.715588e+002
1.060869e+003,1.740235e+002
1.062797e+003,1.687286e+002
1.064726e+003,1.678167e+002
1.066654e+003,1.745335e+002
1.068583e+003,1.851250e+002
1.070511e+003,1.989201e+002
1.072440e+003,2.163310e+002
1.074368e+003,2.311461e+002
1.076297e+003,2.500219e+002
1.078225e+003,2.594672e+002
1.080154e+003,2.514754e+002
1.082082e+003,2.304442e+002
1.084010e+003,2.092587e+002
1.085939e+003,1.865832e+002
1.087867e+003,1.672307e+002
1.089796e+003,1.532044e+002
1.091724e+003,1.430482e+002
1.093653e+003,1.356975e+002
1.095581e+003,1.314962e+002
1.097510e+003,1.288371e+002
1.099438e+003,1.273614e+002
1.101367e+003,1.273351e+002
1.103295e+003,1.297460e+002
1.105224e+003,1.349651e+002
1.107152e+003,1.380931e+002
1.109081e+003,1.370953e+002
1.111009e+003,1.365162e+002
1.112938e+003,1.380406e+002
1.114866e+003,1.412045e+002
1.116794e+003,1.453675e+002
1.118723e+003,1.517689e+002
1.120651e+003,1.554350e+002
1.122580e+003,1.518321e+002
1.124508e+003,1.463070e+002
1.126437e+003,1.444176e+002
1.128365e+003,1.474782e+002
1.130294e+003,1.501840e+002
1.132222e+003,1.497564e+002
1.134151e+003,1.514147e+002
1.136079e+003,1.606022e+002
1.138008e+003,1.764666e+002
1.139936e+003,1.850056e+002
1.141865e+003,1.836209e+002
1.143793e+003,1.789095e+002
1.145721e+003,1.703865e+002
1.147650e+003,1.605337e+002
1.149578e+003,1.534196e+002
1.151507e+003,1.497387e+002
1.153435e+003,1.457093e+002
1.155364e+003,1.389774e+002
1.157292e+003,1.329302e+002
1.159221e+003,1.303749e+002
1.161149e+003,1.320965e+002
1.163078e+003,1.318902e+002
1.165006e+003,1.255270e+002
1.166935e+003,1.222857e+002
1.168863e+003,1.278144e+002
1.170792e+003,1.384783e+002
1.172720e+003,1.437926e+002
1.174648e+003,1.416566e+002
1.176577e+003,1.403481e+002
1.178505e+003,1.427194e+002
1.180434e+003,1.456559e+002
1.182362e+003,1.465686e+002
1.184291e+003,1.455109e+002
1.186219e+003,1.437052e+002
1.188148e+003,1.395589e+002
1.190076e+003,1.372203e+002
1.192005e+003,1.396607e+002
1.193933e+003,1.452383e+002
1.195862e+003,1.482549e+002
1.197790e+003,1.446478e+002
1.199719e+003,1.450746e+002
1.201647e+003,1.546641e+002
1.203575e+003,1.656858e+002
1.205504e+003,1.711543e+002
1.207432e+003,1.703789e+002
1.209361e+003,1.677406e+002
1.211289e+003,1.618681e+002
1.213218e+003,1.558563e+002
1.215146e+003,1.510645e+002
1.217075e+003,1.470939e+002
1.219003e+003,1.431629e+002
1.220932e+003,1.393420e+002
1.222860e+003,1.353979e+002
1.224789e+003,1.288458e+002
1.226717e+003,1.241407e+002
1.228646e+003,1.250993e+002
1.230574e+003,1.322455e+002
1.232502e+003,1.394283e+002
1.234431e+003,1.497146e+002
1.236359e+003,1.560323e+002
1.238288e+003,1.540819e+002
1.240216e+003,1.473784e+002
1.242145e+003,1.429861e+002
1.244073e+003,1.413813e+002
1.246002e+003,1.410175e+002
1.247930e+003,1.431280e+002
1.249859e+003,1.453599e+002
1.251787e+003,1.462969e+002
1.253716e+003,1.460921e+002
1.255644e+003,1.452152e+002
1.257573e+003,1.436240e+002
1.259501e+003,1.414302e+002
1.261429e+003,1.372121e+002
1.263358e+003,1.331743e+002
1.265286e+003,1.320804e+002
1.267215e+003,1.343599e+002
1.269143e+003,1.366653e+002
1.271072e+003,1.392064e+002
1.273000e+003,1.410030e+002
1.274929e+003,1.412498e+002
1.276857e+003,1.404459e+002
1.278786e+003,1.402405e+002
1.280714e+003,1.408239e+002
1.282643e+003,1.418462e+002
1.284571e+003,1.422712e+002
1.286500e+003,1.440384e+002
1.288428e+003,1.492268e+002
1.290356e+003,1.576400e+002
1.292285e+003,1.655662e+002
1.294213e+003,1.720106e+002
1.296142e+003,1.796283e+002
1.298070e+003,1.928558e+002
1.299999e+003,2.056135e+002
1.301927e+003,2.106252e+002
1.303856e+003,2.074258e+002
1.305784e+003,2.030433e+002
1.307713e+003,1.971046e+002
1.309641e+003,1.921219e+002
1.311570e+003,1.893166e+002
1.313498e+003,1.882316e+002
1.315427e+003,1.880846e+002
1.317355e+003,1.916717e+002
1.319283e+003,1.899382e+002
1.321212e+003,1.760536e+002
1.323140e+003,1.626772e+002
1.325069e+003,1.586518e+002
1.326997e+003,1.630206e+002
1.328926e+003,1.654759e+002
1.330854e+003,1.624521e+002
1.332783e+003,1.631670e+002
1.334711e+003,1.721694e+002
1.336640e+003,1.833830e+002
1.338568e+003,1.908257e+002
1.340497e+003,1.948645e+002
1.342425e+003,1.997624e+002
1.344354e+003,2.072043e+002
1.346282e+003,2.129351e+002
1.348210e+003,2.165157e+002
1.350139e+003,2.166542e+002
1.352068e+003,2.108526e+002
1.353996e+003,1.986847e+002
1.355924e+003,1.870197e+002
1.357853e+003,1.737457e+002
1.359781e+003,1.655949e+002
1.361710e+003,1.685394e+002
1.363638e+003,1.771924e+002
1.365567e+003,1.803363e+002
1.367495e+003,1.749482e+002
1.369424e+003,1.724082e+002
1.371352e+003,1.765428e+002
1.373281e+003,1.801873e+002
1.375209e+003,1.787864e+002
1.377138e+003,1.743052e+002
1.379066e+003,1.729642e+002
1.380995e+003,1.741937e+002
1.382923e+003,1.796424e+002
1.384851e+003,1.929065e+002
1.386780e+003,2.070702e+002
1.388708e+003,2.148937e+002
1.390637e+003,2.196142e+002
1.392565e+003,2.362209e+002
1.394494e+003,2.713723e+002
1.396422e+003,2.972945e+002
1.398351e+003,3.058893e+002
1.400279e+003,3.042938e+002
1.402208e+003,2.938260e+002
1.404136e+003,2.770712e+002
1.406065e+003,2.630887e+002
1.407993e+003,2.529775e+002
1.409922e+003,2.437025e+002
1.411850e+003,2.308401e+002
1.413778e+003,2.218972e+002
1.415707e+003,2.222579e+002
1.417635e+003,2.315641e+002
1.419564e+003,2.460196e+002
1.421492e+003,2.697145e+002
1.423421e+003,2.907323e+002
1.425349e+003,3.130185e+002
1.427278e+003,3.267930e+002
1.429206e+003,3.221616e+002
1.431135e+003,2.991285e+002
1.433063e+003,2.735197e+002
1.434992e+003,2.365891e+002
1.436920e+003,2.092048e+002
1.438849e+003,1.988345e+002
1.440777e+003,1.950462e+002
1.442705e+003,1.901843e+002
1.444634e+003,1.843527e+002
1.446562e+003,1.781088e+002
1.448491e+003,1.691547e+002
1.450419e+003,1.638158e+002
1.452348e+003,1.662783e+002
1.454276e+003,1.702521e+002
1.456205e+003,1.708275e+002
1.458133e+003,1.682938e+002
1.460062e+003,1.642456e+002
1.461990e+003,1.571785e+002
1.463919e+003,1.527633e+002
1.465847e+003,1.531992e+002
1.467776e+003,1.563622e+002
1.469704e+003,1.627267e+002
1.471632e+003,1.707042e+002
1.473561e+003,1.738360e+002
1.475489e+003,1.697839e+002
1.477418e+003,1.681021e+002
1.479346e+003,1.736104e+002
1.481275e+003,1.798575e+002
1.483203e+003,1.830858e+002
1.485132e+003,1.836380e+002
1.487060e+003,1.823153e+002
1.488989e+003,1.775467e+002
1.490917e+003,1.762273e+002
1.492846e+003,1.825936e+002
1.494774e+003,1.898652e+002
1.496703e+003,1.947052e+002
1.498631e+003,1.980338e+002
1.500559e+003,2.029693e+002
1.502488e+003,2.120205e+002
1.504416e+003,2.155206e+002
1.506345e+003,2.096171e+002
1.508273e+003,2.017307e+002
1.510202e+003,1.945111e+002
1.512130e+003,1.873157e+002
1.514059e+003,1.781938e+002
1.515987e+003,1.642535e+002
1.517916e+003,1.576370e+002
1.519844e+003,1.645640e+002
1.521773e+003,1.703968e+002
1.523701e+003,1.698300e+002
1.525630e+003,1.662070e+002
1.527558e+003,1.637122e+002
1.529486e+003,1.624547e+002
1.531415e+003,1.607704e+002
1.533343e+003,1.557027e+002
1.535272e+003,1.541011e+002
1.537200e+003,1.610430e+002
1.539129e+003,1.690790e+002
1.541057e+003,1.710684e+002
1.542986e+003,1.677384e+002
1.544914e+003,1.655347e+002
1.546843e+003,1.646637e+002
1.548771e+003,1.645928e+002
1.550700e+003,1.660491e+002
1.552628e+003,1.674832e+002
1.554557e+003,1.677292e+002
1.556485e+003,1.671324e+002
1.558413e+003,1.659032e+002
1.560342e+003,1.632545e+002
1.562270e+003,1.652140e+002
1.564199e+003,1.782045e+002
1.566127e+003,1.881975e+002
1.568056e+003,1.852869e+002
1.569984e+003,1.771901e+002
1.571913e+003,1.737971e+002
1.573841e+003,1.750435e+002
1.575770e+003,1.782372e+002
1.577698e+003,1.844180e+002
1.579627e+003,1.895343e+002
1.581555e+003,1.926413e+002
1.583484e+003,1.935892e+002
1.585412e+003,1.910636e+002
1.587340e+003,1.862177e+002
1.589269e+003,1.842271e+002
1.591197e+003,1.861581e+002
1.593126e+003,1.873682e+002
1.595054e+003,1.841255e+002
1.596983e+003,1.833225e+002
1.598911e+003,1.915320e+002
1.600840e+003,2.034403e+002
1.602768e+003,2.078182e+002
1.604697e+003,2.038154e+002
1.606625e+003,2.030759e+002
1.608554e+003,2.093452e+002
1.610482e+003,2.145200e+002
1.612411e+003,2.155562e+002
1.614339e+003,2.147023e+002
1.616267e+003,2.133042e+002
1.618196e+003,2.116062e+002
1.620124e+003,2.110984e+002
1.622053e+003,2.114740e+002
1.623981e+003,2.141810e+002
1.625910e+003,2.208878e+002
1.627838e+003,2.284136e+002
1.629767e+003,2.356835e+002
1.631695e+003,2.424494e+002
1.633624e+003,2.478623e+002
1.635552e+003,2.514329e+002
1.637481e+003,2.569474e+002
1.639409e+003,2.661562e+002
1.641338e+003,2.749338e+002
1.643266e+003,2.831620e+002
1.645194e+003,2.900152e+002
1.647123e+003,2.957072e+002
1.649051e+003,2.996695e+002
1.650980e+003,2.984044e+002
1.652908e+003,2.906470e+002
1.654837e+003,2.808665e+002
1.656765e+003,2.662044e+002
1.658694e+003,2.534762e+002
1.660622e+003,2.450213e+002
1.662551e+003,2.398952e+002
1.664479e+003,2.389208e+002
1.666408e+003,2.428008e+002
1.668336e+003,2.382021e+002
1.670265e+003,2.186250e+002
1.672193e+003,2.038634e+002
1.674121e+003,1.994197e+002
1.676050e+003,1.972445e+002
1.677978e+003,1.931029e+002
1.679907e+003,1.880599e+002
1.681835e+003,1.841157e+002
1.683764e+003,1.808610e+002
1.685692e+003,1.804130e+002
1.687621e+003,1.864609e+002
1.689549e+003,1.894972e+002
1.691478e+003,1.854832e+002
1.693406e+003,1.801721e+002
1.695335e+003,1.780344e+002
1.697263e+003,1.779837e+002
1.699192e+003,1.760929e+002
1.701120e+003,1.716402e+002
1.703048e+003,1.679848e+002
1.704977e+003,1.639463e+002
1.706905e+003,1.624503e+002
1.708834e+003,1.660572e+002
1.710762e+003,1.707401e+002
1.712691e+003,1.727712e+002
1.714619e+003,1.727778e+002
1.716548e+003,1.746244e+002
1.718476e+003,1.801411e+002
1.720405e+003,1.817415e+002
1.722333e+003,1.750110e+002
1.724262e+003,1.695146e+002
1.726190e+003,1.693055e+002
1.728119e+003,1.705238e+002
1.730047e+003,1.693989e+002
1.731975e+003,1.662238e+002
1.733904e+003,1.634123e+002
1.735832e+003,1.606894e+002
1.737761e+003,1.592578e+002
1.739689e+003,1.593196e+002
1.741618e+003,1.607286e+002
1.743546e+003,1.647163e+002
1.745475e+003,1.689647e+002
1.747403e+003,1.711984e+002
1.749332e+003,1.715527e+002
1.751260e+003,1.712166e+002
1.753189e+003,1.700671e+002
1.755117e+003,1.686383e+002
1.757046e+003,1.658815e+002
1.758974e+003,1.648212e+002
1.760902e+003,1.684428e+002
1.762831e+003,1.727393e+002
1.764759e+003,1.728950e+002
1.766688e+003,1.704307e+002
1.768616e+003,1.736081e+002
1.770545e+003,1.843833e+002
1.772473e+003,1.882744e+002
1.774402e+003,1.778213e+002
1.776330e+003,1.695410e+002
1.778259e+003,1.720309e+002
1.780187e+003,1.772949e+002
1.782116e+003,1.792482e+002
1.784044e+003,1.789740e+002
1.785973e+003,1.797474e+002
1.787901e+003,1.818417e+002
1.789829e+003,1.819676e+002
1.791758e+003,1.787014e+002
1.793686e+003,1.759142e+002
1.795615e+003,1.751210e+002
1.797543e+003,1.750774e+002
1.799472e+003,1.745895e+002
1.801400e+003,1.743456e+002
1.803329e+003,1.765678e+002
1.805257e+003,1.810866e+002
1.807186e+003,1.821227e+002
1.809114e+003,1.785532e+002
1.811043e+003,1.730438e+002
1.812971e+003,1.607291e+002
1.814900e+003,1.533922e+002
1.816828e+003,1.627734e+002
1.818756e+003,1.779940e+002
1.820685e+003,1.835285e+002
1.822613e+003,1.805805e+002
1.824542e+003,1.778752e+002
1.826470e+003,1.752774e+002
1.828399e+003,1.741570e+002
1.830327e+003,1.763787e+002
1.832256e+003,1.779083e+002
1.834184e+003,1.756633e+002
1.836113e+003,1.735110e+002
1.838041e+003,1.769033e+002
1.839970e+003,1.835803e+002
1.841898e+003,1.843820e+002
1.843827e+003,1.764557e+002
1.845755e+003,1.734298e+002
1.847684e+003,1.816816e+002
1.849612e+003,1.853547e+002
1.851541e+003,1.744541e+002
1.853469e+003,1.657660e+002
1.855397e+003,1.734182e+002
1.857326e+003,1.879883e+002
1.859254e+003,1.941894e+002
1.861183e+003,1.918988e+002
1.863111e+003,1.863951e+002
1.865040e+003,1.737007e+002
1.866968e+003,1.667693e+002
1.868897e+003,1.707470e+002
1.870825e+003,1.749678e+002
1.872754e+003,1.763126e+002
1.874682e+003,1.766603e+002
1.876611e+003,1.769736e+002
1.878539e+003,1.776255e+002
1.880468e+003,1.803611e+002
1.882396e+003,1.854518e+002
1.884324e+003,1.874797e+002
1.886253e+003,1.847879e+002
1.888181e+003,1.827435e+002
1.890110e+003,1.838142e+002
1.892038e+003,1.840116e+002
1.893967e+003,1.799338e+002
1.895895e+003,1.750077e+002
1.897824e+003,1.728855e+002
1.899752e+003,1.728235e+002
1.901681e+003,1.722108e+002
1.903609e+003,1.708813e+002
1.905538e+003,1.719039e+002
1.907466e+003,1.773688e+002
1.909395e+003,1.809112e+002
1.911323e+003,1.792867e+002
1.913251e+003,1.768122e+002
1.915180e+003,1.748878e+002
1.917108e+003,1.740201e+002
1.919037e+003,1.754684e+002
1.920965e+003,1.787140e+002
1.922894e+003,1.807966e+002
1.924822e+003,1.815825e+002
1.926751e+003,1.817975e+002
1.928679e+003,1.829656e+002
1.930608e+003,1.814046e+002
1.932536e+003,1.714079e+002
1.934465e+003,1.643409e+002
1.936393e+003,1.714306e+002
1.938322e+003,1.819140e+002
1.940250e+003,1.781015e+002
1.942178e+003,1.630944e+002
1.944107e+003,1.607866e+002
1.946035e+003,1.750719e+002
1.947964e+003,1.861833e+002
1.949892e+003,1.938453e+002
1.951821e+003,1.968763e+002
1.953749e+003,1.914487e+002
1.955678e+003,1.859110e+002
1.957606e+003,1.851611e+002
1.959535e+003,1.856123e+002
1.961463e+003,1.808424e+002
1.963392e+003,1.741556e+002
1.965320e+003,1.790096e+002
1.967249e+003,1.959320e+002
1.969177e+003,2.022179e+002
1.971105e+003,1.914040e+002
1.973034e+003,1.836028e+002
1.974962e+003,1.864283e+002
1.976891e+003,1.899239e+002
1.978819e+003,1.893753e+002
1.980748e+003,1.876931e+002
1.982676e+003,1.861701e+002
1.984605e+003,1.858935e+002
1.986533e+003,1.912197e+002
1.988462e+003,2.027929e+002
1.990390e+003,2.074202e+002
1.992319e+003,1.997710e+002
1.994247e+003,1.945644e+002
1.996176e+003,1.931808e+002
1.998104e+003,1.926088e+002
2.000032e+003,1.918118e+002
2.001961e+003,1.919421e+002
2.003889e+003,1.956103e+002
2.005818e+003,1.993881e+002
2.007746e+003,1.968048e+002
2.009675e+003,1.892973e+002
2.011603e+003,1.861388e+002
2.013532e+003,1.876194e+002
2.015460e+003,1.913334e+002
2.017389e+003,1.981178e+002
2.019317e+003,2.039226e+002
2.021246e+003,2.088370e+002
2.023174e+003,2.108869e+002
2.025103e+003,2.062407e+002
2.027031e+003,2.010574e+002
2.028959e+003,2.015117e+002
2.030888e+003,2.046551e+002
2.032816e+003,2.050997e+002
2.034745e+003,2.029254e+002
2.036673e+003,1.992265e+002
2.038602e+003,1.921054e+002
2.040530e+003,1.891546e+002
2.042459e+003,1.955909e+002
2.044387e+003,1.984492e+002
2.046316e+003,1.910835e+002
2.048244e+003,1.855711e+002
2.050173e+003,1.903780e+002
2.052101e+003,1.967650e+002
2.054030e+003,1.936937e+002
2.055958e+003,1.869402e+002
2.057886e+003,1.925282e+002
2.059815e+003,2.086607e+002
2.061743e+003,2.155016e+002
2.063672e+003,2.111409e+002
2.065600e+003,2.065886e+002
2.067529e+003,2.020473e+002
2.069457e+003,2.012941e+002
2.071386e+003,2.105482e+002
2.073314e+003,2.166924e+002
2.075243e+003,2.075611e+002
2.077171e+003,1.981603e+002
2.079100e+003,2.066204e+002
2.081028e+003,2.223721e+002
2.082957e+003,2.233619e+002
2.084885e+003,2.108587e+002
2.086813e+003,2.017945e+002
2.088742e+003,1.961128e+002
2.090670e+003,1.938720e+002
2.092599e+003,1.960338e+002
2.094527e+003,1.996569e+002
2.096456e+003,2.064449e+002
2.098384e+003,2.115368e+002
2.100313e+003,2.137876e+002
2.102241e+003,2.132499e+002
2.104170e+003,2.079308e+002
2.106098e+003,2.013407e+002
2.108027e+003,1.970508e+002
2.109955e+003,1.953096e+002
2.111884e+003,1.984237e+002
2.113812e+003,2.063267e+002
2.115740e+003,2.085957e+002
2.117669e+003,2.021490e+002
2.119597e+003,1.983213e+002
2.121526e+003,1.989124e+002
2.123454e+003,2.014673e+002
2.125383e+003,2.102774e+002
2.127311e+003,2.147561e+002
2.129240e+003,2.035342e+002
2.131168e+003,1.916720e+002
2.133097e+003,1.955673e+002
2.135025e+003,2.065464e+002
2.136954e+003,2.082433e+002
2.138882e+003,2.028035e+002
2.140811e+003,2.012147e+002
2.142739e+003,2.037229e+002
2.144667e+003,2.044382e+002
2.146596e+003,2.023153e+002
2.148524e+003,2.010571e+002
2.150453e+003,2.016457e+002
2.152381e+003,2.025431e+002
2.154310e+003,2.033132e+002
2.156238e+003,2.041614e+002
2.158167e+003,2.055822e+002
2.160095e+003,2.067704e+002
2.162024e+003,2.072254e+002
2.163952e+003,2.069011e+002
2.165881e+003,2.047657e+002
2.167809e+003,2.015575e+002
2.169738e+003,2.026997e+002
2.171666e+003,2.082894e+002
2.173594e+003,2.081959e+002
2.175523e+003,2.004565e+002
2.177451e+003,1.953651e+002
2.179380e+003,1.942391e+002
2.181308e+003,1.968830e+002
2.183237e+003,2.079275e+002
2.185165e+003,2.159974e+002
2.187094e+003,2.139601e+002
2.189022e+003,2.099675e+002
2.190951e+003,2.101210e+002
2.192879e+003,2.114546e+002
2.194808e+003,2.089558e+002
2.196736e+003,2.047691e+002
2.198665e+003,2.064537e+002
2.200593e+003,2.135964e+002
2.202521e+003,2.123737e+002
2.204450e+003,2.016249e+002
2.206378e+003,1.972499e+002
2.208307e+003,2.020017e+002
2.210235e+003,2.067169e+002
2.212164e+003,2.103935e+002
2.214092e+003,2.121939e+002
2.216021e+003,2.108898e+002
2.217949e+003,2.089796e+002
2.219878e+003,2.074690e+002
2.221806e+003,2.058813e+002
2.223735e+003,2.024320e+002
2.225663e+003,1.996790e+002
2.227592e+003,2.018021e+002
2.229520e+003,2.071110e+002
2.231448e+003,2.111105e+002
2.233377e+003,2.139789e+002
2.235305e+003,2.178678e+002
2.237234e+003,2.229881e+002
2.239162e+003,2.233704e+002
2.241091e+003,2.170900e+002
2.243019e+003,2.150235e+002
2.244948e+003,2.228036e+002
2.246876e+003,2.262511e+002
2.248805e+003,2.175937e+002
2.250733e+003,2.092898e+002
2.252662e+003,2.051655e+002
2.254590e+003,2.037980e+002
2.256519e+003,2.065761e+002
2.258447e+003,2.096187e+002
2.260375e+003,2.071995e+002
2.262304e+003,2.037038e+002
2.264232e+003,2.093895e+002
2.266161e+003,2.196780e+002
2.268089e+003,2.186023e+002
2.270018e+003,2.076501e+002
2.271946e+003,2.020636e+002
2.273875e+003,2.030734e+002
2.275803e+003,2.042126e+002
2.277732e+003,2.050828e+002
2.279660e+003,2.060573e+002
2.281589e+003,2.084313e+002
2.283517e+003,2.090633e+002
2.285446e+003,2.041297e+002
2.287374e+003,2.021691e+002
2.289302e+003,2.090894e+002
2.291231e+003,2.156642e+002
2.293159e+003,2.154757e+002
2.295088e+003,2.142064e+002
2.297016e+003,2.178345e+002
2.298945e+003,2.224711e+002
2.300873e+003,2.216666e+002
2.302802e+003,2.181498e+002
2.304730e+003,2.194631e+002
2.306659e+003,2.247152e+002
2.308587e+003,2.271194e+002
2.310516e+003,2.267656e+002
2.312444e+003,2.212582e+002
2.314373e+003,2.083213e+002
2.316301e+003,2.046827e+002
2.318229e+003,2.143548e+002
2.320158e+003,2.225812e+002
2.322086e+003,2.274117e+002
2.324015e+003,2.285083e+002
2.325943e+003,2.206209e+002
2.327872e+003,2.164801e+002
2.329800e+003,2.251885e+002
2.331729e+003,2.334584e+002
2.333657e+003,2.326602e+002
2.335586e+003,2.289156e+002
2.337514e+003,2.247979e+002
2.339443e+003,2.228495e+002
2.341371e+003,2.311103e+002
2.343300e+003,2.412812e+002
2.345228e+003,2.342715e+002
2.347156e+003,2.161592e+002
2.349085e+003,2.058153e+002
2.351013e+003,2.031261e+002
2.352942e+003,2.017160e+002
2.354870e+003,2.009887e+002
2.356799e+003,2.061553e+002
2.358727e+003,2.223454e+002
2.360656e+003,2.291383e+002
2.362584e+003,2.215379e+002
2.364513e+003,2.178342e+002
2.366441e+003,2.230620e+002
2.368370e+003,2.257799e+002
2.370298e+003,2.202317e+002
2.372227e+003,2.163947e+002
2.374155e+003,2.228124e+002
2.376083e+003,2.259392e+002
2.378012e+003,2.132102e+002
2.379940e+003,2.014357e+002
2.381869e+003,2.041149e+002
2.383797e+003,2.124567e+002
2.385726e+003,2.206405e+002
2.387654e+003,2.267505e+002
2.389583e+003,2.252841e+002
2.391511e+003,2.211051e+002
2.393440e+003,2.262944e+002
2.395368e+003,2.368762e+002
2.397297e+003,2.378958e+002
2.399225e+003,2.300431e+002
2.401154e+003,2.226162e+002
2.403082e+003,2.150275e+002
2.405010e+003,2.134165e+002
2.406939e+003,2.200369e+002
2.408867e+003,2.200209e+002
2.410796e+003,2.100430e+002
2.412724e+003,2.073041e+002
2.414653e+003,2.164991e+002
2.416581e+003,2.256289e+002
2.418510e+003,2.344260e+002
2.420438e+003,2.375479e+002
2.422367e+003,2.272475e+002
2.424295e+003,2.201336e+002
2.426224e+003,2.236241e+002
2.428152e+003,2.290801e+002
2.430081e+003,2.365512e+002
2.432009e+003,2.399707e+002
2.433938e+003,2.330840e+002
2.435866e+003,2.243543e+002
2.437794e+003,2.177873e+002
2.439723e+003,2.155467e+002
2.441651e+003,2.236718e+002
2.443580e+003,2.348674e+002
2.445508e+003,2.382142e+002
2.447437e+003,2.357387e+002
2.449365e+003,2.301402e+002
2.451294e+003,2.231185e+002
2.453222e+003,2.227596e+002
2.455151e+003,2.269547e+002
2.457079e+003,2.245347e+002
2.459008e+003,2.161425e+002
2.460936e+003,2.115602e+002
2.462865e+003,2.112054e+002
2.464793e+003,2.151378e+002
2.466721e+003,2.264885e+002
2.468650e+003,2.315066e+002
2.470578e+003,2.283000e+002
2.472507e+003,2.259156e+002
2.474435e+003,2.253950e+002
2.476364e+003,2.242156e+002
2.478292e+003,2.204989e+002
2.480221e+003,2.203125e+002
2.482149e+003,2.292116e+002
2.484078e+003,2.354050e+002
2.486006e+003,2.344061e+002
2.487935e+003,2.332351e+002
2.489863e+003,2.361113e+002
2.491792e+003,2.359612e+002
2.493720e+003,2.257536e+002
2.495648e+003,2.185516e+002
2.497577e+003,2.250285e+002
2.499505e+003,2.323419e+002
2.501434e+003,2.317227e+002
2.503362e+003,2.288208e+002
2.505291e+003,2.275617e+002
2.507219e+003,2.272834e+002
2.509148e+003,2.275426e+002
2.511076e+003,2.282077e+002
2.513005e+003,2.283229e+002
2.514933e+003,2.292811e+002
2.516862e+003,2.355582e+002
2.518790e+003,2.425261e+002
2.520719e+003,2.402729e+002
2.522647e+003,2.322941e+002
2.524575e+003,2.262864e+002
2.526504e+003,2.229985e+002
2.528432e+003,2.281042e+002
2.530361e+003,2.390571e+002
2.532289e+003,2.398812e+002
2.534218e+003,2.323455e+002
2.536146e+003,2.296297e+002
2.538075e+003,2.320402e+002
2.540003e+003,2.312562e+002
2.541932e+003,2.261189e+002
2.543860e+003,2.289166e+002
2.545789e+003,2.422918e+002
2.547717e+003,2.455441e+002
2.549646e+003,2.369621e+002
2.551574e+003,2.306805e+002
2.553502e+003,2.280460e+002
2.555431e+003,2.276399e+002
2.557359e+003,2.299532e+002
2.559288e+003,2.323633e+002
2.561216e+003,2.359791e+002
2.563145e+003,2.364072e+002
2.565073e+003,2.305326e+002
2.567002e+003,2.300366e+002
2.568930e+003,2.394493e+002
2.570859e+003,2.463943e+002
2.572787e+003,2.477195e+002
2.574716e+003,2.462915e+002
2.576644e+003,2.390135e+002
2.578573e+003,2.352781e+002
2.580501e+003,2.393700e+002
2.582429e+003,2.444131e+002
2.584358e+003,2.509126e+002
2.586287e+003,2.535515e+002
2.588215e+003,2.474538e+002
2.590144e+003,2.421898e+002
2.592072e+003,2.435997e+002
2.594000e+003,2.450699e+002
2.595929e+003,2.411129e+002
2.597857e+003,2.394830e+002
2.599786e+003,2.474229e+002
2.601714e+003,2.546497e+002
2.603643e+003,2.546979e+002
2.605571e+003,2.533350e+002
2.607500e+003,2.560693e+002
2.609428e+003,2.567333e+002
2.611357e+003,2.457082e+002
2.613285e+003,2.368065e+002
2.615214e+003,2.460738e+002
2.617142e+003,2.572752e+002
2.619071e+003,2.544899e+002
2.620999e+003,2.491065e+002
2.622927e+003,2.498976e+002
2.624856e+003,2.541246e+002
2.626784e+003,2.636261e+002
2.628713e+003,2.704349e+002
2.630641e+003,2.608189e+002
2.632570e+003,2.478386e+002
2.634498e+003,2.480221e+002
2.636427e+003,2.537115e+002
2.638355e+003,2.572280e+002
2.640284e+003,2.588598e+002
2.642212e+003,2.569259e+002
2.644141e+003,2.549380e+002
2.646069e+003,2.622260e+002
2.647998e+003,2.698457e+002
2.649926e+003,2.566062e+002
2.651854e+003,2.383894e+002
2.653783e+003,2.472029e+002
2.655711e+003,2.653430e+002
2.657640e+003,2.623163e+002
2.659568e+003,2.500574e+002
2.661497e+003,2.498455e+002
2.663425e+003,2.574694e+002
2.665354e+003,2.683080e+002
2.667282e+003,2.781886e+002
2.669211e+003,2.746327e+002
2.671139e+003,2.654736e+002
2.673068e+003,2.675385e+002
2.674996e+003,2.748184e+002
2.676925e+003,2.737084e+002
2.678853e+003,2.677794e+002
2.680781e+003,2.648683e+002
2.682710e+003,2.643553e+002
2.684638e+003,2.669118e+002
2.686567e+003,2.694394e+002
2.688495e+003,2.621763e+002
2.690424e+003,2.514635e+002
2.692352e+003,2.541431e+002
2.694281e+003,2.647689e+002
2.696209e+003,2.698189e+002
2.698138e+003,2.712461e+002
2.700066e+003,2.726700e+002
2.701995e+003,2.749488e+002
2.703923e+003,2.807012e+002
2.705852e+003,2.882179e+002
2.707780e+003,2.951504e+002
2.709708e+003,2.997449e+002
2.711637e+003,2.932218e+002
2.713565e+003,2.834347e+002
2.715494e+003,2.931102e+002
2.717422e+003,3.114157e+002
2.719351e+003,3.161285e+002
2.721279e+003,3.131661e+002
2.723208e+003,3.156698e+002
2.725136e+003,3.198365e+002
2.727065e+003,3.143792e+002
2.728993e+003,3.061088e+002
2.730922e+003,3.120007e+002
2.732850e+003,3.222906e+002
2.734779e+003,3.177102e+002
2.736707e+003,3.069515e+002
2.738635e+003,3.078870e+002
2.740564e+003,3.129955e+002
2.742492e+003,3.091754e+002
2.744421e+003,3.002889e+002
2.746349e+003,2.890594e+002
2.748278e+003,2.796806e+002
2.750206e+003,2.796561e+002
2.752135e+003,2.841321e+002
2.754063e+003,2.875327e+002
2.755992e+003,2.896465e+002
2.757920e+003,2.911054e+002
2.759849e+003,2.902731e+002
2.761777e+003,2.819522e+002
2.763706e+003,2.741601e+002
2.765634e+003,2.777456e+002
2.767563e+003,2.849185e+002
2.769491e+003,2.867814e+002
2.771419e+003,2.884907e+002
2.773348e+003,2.970812e+002
2.775276e+003,3.048307e+002
2.777205e+003,3.050590e+002
2.779133e+003,3.011276e+002
2.781062e+003,2.911745e+002
2.782990e+003,2.840298e+002
2.784919e+003,2.875651e+002
2.786847e+003,2.951315e+002
2.788776e+003,3.053188e+002
2.790704e+003,3.143794e+002
2.792633e+003,3.222953e+002
2.794561e+003,3.253649e+002
2.796490e+003,3.159288e+002
2.798418e+003,3.099505e+002
2.800346e+003,3.174806e+002
2.802275e+003,3.243587e+002
2.804203e+003,3.230542e+002
2.806132e+003,3.204888e+002
2.808060e+003,3.178409e+002
2.809989e+003,3.165172e+002
2.811917e+003,3.165718e+002
2.813846e+003,3.184863e+002
2.815774e+003,3.239411e+002
2.817703e+003,3.274951e+002
2.819631e+003,3.235851e+002
2.821560e+003,3.251191e+002
2.823488e+003,3.385723e+002
2.825417e+003,3.471791e+002
2.827345e+003,3.480308e+002
2.829273e+003,3.467161e+002
2.831202e+003,3.425719e+002
2.833130e+003,3.419297e+002
2.835059e+003,3.427949e+002
2.836987e+003,3.567367e+002
2.838916e+003,3.876960e+002
2.840844e+003,4.022116e+002
2.842773e+003,3.956562e+002
2.844701e+003,3.943219e+002
2.846630e+003,4.011529e+002
2.848558e+003,4.082278e+002
2.850487e+003,4.156158e+002
2.852415e+003,4.263768e+002
2.854344e+003,4.392513e+002
2.856272e+003,4.401978e+002
2.858200e+003,4.302701e+002
2.860129e+003,4.214068e+002
2.862057e+003,4.137461e+002
2.863986e+003,4.088522e+002
2.865914e+003,4.059810e+002
2.867843e+003,4.008342e+002
2.869771e+003,3.969421e+002
2.871700e+003,4.047065e+002
2.873628e+003,4.177730e+002
2.875557e+003,4.225772e+002
2.877485e+003,4.254741e+002
2.879414e+003,4.380555e+002
2.881342e+003,4.529291e+002
2.883271e+003,4.621727e+002
2.885199e+003,4.693403e+002
2.887127e+003,4.777364e+002
2.889056e+003,4.858973e+002
2.890984e+003,4.907328e+002
2.892913e+003,4.973932e+002
2.894841e+003,5.121189e+002
2.896770e+003,5.248043e+002
2.898698e+003,5.244510e+002
2.900627e+003,5.294039e+002
2.902555e+003,5.478375e+002
2.904484e+003,5.697769e+002
2.906412e+003,5.921617e+002
2.908341e+003,6.179009e+002
2.910269e+003,6.415071e+002
2.912198e+003,6.797678e+002
2.914126e+003,7.252632e+002
2.916054e+003,8.095090e+002
2.917983e+003,9.275735e+002
2.919911e+003,1.148205e+003
2.921840e+003,1.508549e+003
2.923768e+003,1.895971e+003
2.925697e+003,2.341064e+003
2.927625e+003,2.455367e+003
2.929554e+003,2.252648e+003
2.931482e+003,1.931171e+003
2.933411e+003,1.526355e+003
2.935339e+003,1.213480e+003
2.937268e+003,9.896926e+002
2.939196e+003,8.603441e+002
2.941125e+003,8.084545e+002
2.943053e+003,8.048456e+002
2.944981e+003,8.386240e+002
2.946910e+003,8.921743e+002
2.948838e+003,9.752492e+002
2.950767e+003,1.093237e+003
2.952695e+003,1.258135e+003
2.954624e+003,1.410611e+003
2.956552e+003,1.706047e+003
2.958481e+003,2.348903e+003
2.960409e+003,3.039440e+003
2.962338e+003,3.908663e+003
2.964266e+003,4.265853e+003
2.966195e+003,3.712502e+003
2.968123e+003,2.981634e+003
2.970052e+003,2.123026e+003
2.971980e+003,1.493375e+003
2.973908e+003,1.155305e+003
2.975837e+003,9.582151e+002
2.977765e+003,8.893242e+002
2.979694e+003,9.505624e+002
2.981622e+003,1.188247e+003
2.983551e+003,1.311302e+003
2.985479e+003,1.318835e+003
2.987408e+003,1.205932e+003
2.989336e+003,9.996255e+002
2.991265e+003,8.329341e+002
2.993193e+003,7.053573e+002
2.995122e+003,6.101909e+002
2.997050e+003,5.469597e+002
2.998979e+003,5.162280e+002
3.000907e+003,5.165589e+002
3.002835e+003,5.521904e+002
3.004764e+003,6.090400e+002
3.006692e+003,7.002131e+002
3.008621e+003,7.689695e+002
3.010549e+003,7.825408e+002
3.012478e+003,7.579218e+002
3.014406e+003,6.820534e+002
3.016335e+003,6.064330e+002
3.018263e+003,5.410214e+002
3.020192e+003,4.935116e+002
3.022120e+003,4.671713e+002
3.024049e+003,4.501029e+002
3.025977e+003,4.408121e+002
3.027906e+003,4.408733e+002
3.029834e+003,4.528224e+002
3.031762e+003,4.486909e+002
3.033691e+003,4.307874e+002
3.035619e+003,4.262904e+002
3.037548e+003,4.326938e+002
3.039476e+003,4.360997e+002
3.041405e+003,4.384779e+002
3.043333e+003,4.468283e+002
3.045262e+003,4.552224e+002
3.047190e+003,4.518848e+002
3.049119e+003,4.485426e+002
3.051047e+003,4.612288e+002
3.052976e+003,4.723883e+002
3.054904e+003,4.704879e+002
3.056833e+003,4.650547e+002
3.058761e+003,4.569666e+002
3.060689e+003,4.534622e+002
3.062618e+003,4.604771e+002
3.064546e+003,4.624355e+002
3.066475e+003,4.556885e+002
3.068403e+003,4.595956e+002
3.070332e+003,4.827749e+002
3.072260e+003,4.767967e+002
3.074189e+003,4.416721e+002
3.076117e+003,4.343490e+002
3.078046e+003,4.460408e+002
3.079974e+003,4.387039e+002
3.081903e+003,4.211283e+002
3.083831e+003,4.120647e+002
3.085760e+003,4.082781e+002
3.087688e+003,4.094697e+002
3.089616e+003,4.085349e+002
3.091545e+003,3.946447e+002
3.093473e+003,3.841358e+002
3.095402e+003,3.939666e+002
3.097330e+003,3.950481e+002
3.099259e+003,3.723684e+002
3.101187e+003,3.584834e+002
3.103116e+003,3.732023e+002
3.105044e+003,3.693990e+002
3.106973e+003,3.427096e+002
3.108901e+003,3.397997e+002
3.110830e+003,3.612951e+002
3.112758e+003,3.624587e+002
3.114687e+003,3.477124e+002
3.116615e+003,3.391867e+002
3.118543e+003,3.352672e+002
3.120472e+003,3.341487e+002
3.122400e+003,3.334521e+002
3.124329e+003,3.303012e+002
3.126257e+003,3.265933e+002
3.128186e+003,3.239722e+002
3.130114e+003,3.213460e+002
3.132043e+003,3.167289e+002
3.133971e+003,3.153921e+002
3.135900e+003,3.208905e+002
3.137828e+003,3.238302e+002
3.139757e+003,3.229427e+002
3.141685e+003,3.222406e+002
3.143614e+003,3.220543e+002
3.145542e+003,3.167667e+002
3.147470e+003,3.077374e+002
3.149399e+003,3.045313e+002
3.151327e+003,3.048977e+002
3.153256e+003,3.047677e+002
3.155184e+003,3.045102e+002
3.157113e+003,3.040168e+002
3.159041e+003,3.042367e+002
3.160970e+003,3.087416e+002
3.162898e+003,3.087830e+002
3.164827e+003,2.941863e+002
3.166755e+003,2.873599e+002
3.168684e+003,2.949299e+002
3.170612e+003,2.956415e+002
3.172541e+003,2.851510e+002
3.174469e+003,2.784913e+002
3.176397e+003,2.761250e+002
3.178326e+003,2.856687e+002
3.180254e+003,2.999355e+002
3.182183e+003,2.956989e+002
3.184111e+003,2.837818e+002
3.186040e+003,2.794489e+002
3.187968e+003,2.792854e+002
3.189897e+003,2.818215e+002
3.191825e+003,2.847210e+002
3.193754e+003,2.903492e+002
3.195682e+003,2.886369e+002
3.197611e+003,2.744772e+002
3.199539e+003,2.667676e+002
3.201468e+003,2.696077e+002
3.203396e+003,2.676894e+002
3.205324e+003,2.604358e+002
3.207253e+003,2.655218e+002
3.209181e+003,2.771051e+002
3.211110e+003,2.789221e+002
3.213038e+003,2.739731e+002
3.214967e+003,2.609367e+002
3.216895e+003,2.516398e+002
3.218824e+003,2.577086e+002
3.220752e+003,2.655805e+002
3.222681e+003,2.680044e+002
3.224609e+003,2.724949e+002
3.226538e+003,2.818671e+002
3.228466e+003,2.848167e+002
3.230395e+003,2.790157e+002
3.232323e+003,2.783082e+002
3.234251e+003,2.816899e+002
3.236180e+003,2.722328e+002
3.238108e+003,2.593373e+002
3.240037e+003,2.652868e+002
3.241965e+003,2.755238e+002
3.243894e+003,2.745265e+002
3.245822e+003,2.684682e+002
3.247751e+003,2.561402e+002
3.249679e+003,2.498169e+002
3.251608e+003,2.582956e+002
3.253536e+003,2.640805e+002
3.255465e+003,2.656357e+002
3.257393e+003,2.680654e+002
3.259322e+003,2.711109e+002
3.261250e+003,2.643404e+002
3.263178e+003,2.516403e+002
3.265107e+003,2.410653e+002
3.267035e+003,2.367983e+002
3.268964e+003,2.510368e+002
3.270892e+003,2.631696e+002
3.272821e+003,2.547909e+002
3.274749e+003,2.500979e+002
3.276678e+003,2.616924e+002
3.278606e+003,2.622551e+002
3.280535e+003,2.438130e+002
3.282463e+003,2.409263e+002
3.284392e+003,2.513701e+002
3.286320e+003,2.473246e+002
3.288249e+003,2.349547e+002
3.290177e+003,2.305495e+002
3.292105e+003,2.299268e+002
3.294034e+003,2.277758e+002
3.295962e+003,2.280298e+002
3.297891e+003,2.368634e+002
3.299819e+003,2.412620e+002
3.301748e+003,2.372862e+002
3.303676e+003,2.336395e+002
3.305605e+003,2.312355e+002
3.307533e+003,2.341087e+002
3.309462e+003,2.405120e+002
3.311390e+003,2.379579e+002
3.313319e+003,2.320801e+002
3.315247e+003,2.319657e+002
3.317176e+003,2.350117e+002
3.319104e+003,2.432636e+002
3.321032e+003,2.454672e+002
3.322961e+003,2.266175e+002
3.324889e+003,2.235353e+002
3.326818e+003,2.448952e+002
3.328746e+003,2.487559e+002
3.330675e+003,2.339243e+002
3.332603e+003,2.361576e+002
3.334532e+003,2.475249e+002
3.336460e+003,2.419546e+002
3.338389e+003,2.331921e+002
3.340317e+003,2.369816e+002
3.342246e+003,2.419360e+002
3.344174e+003,2.428267e+002
3.346103e+003,2.410157e+002
3.348031e+003,2.354398e+002
3.349959e+003,2.343107e+002
3.351888e+003,2.385995e+002
3.353816e+003,2.376798e+002
3.355745e+003,2.344376e+002
3.357673e+003,2.399106e+002
3.359602e+003,2.460858e+002
3.361530e+003,2.390925e+002
3.363459e+003,2.327896e+002
3.365387e+003,2.386823e+002
3.367316e+003,2.396884e+002
3.369244e+003,2.294955e+002
3.371173e+003,2.209060e+002
3.373101e+003,2.150187e+002
3.375030e+003,2.155127e+002
3.376958e+003,2.221617e+002
3.378886e+003,2.413296e+002
3.380815e+003,2.582528e+002
3.382743e+003,2.524233e+002
3.384672e+003,2.434225e+002
3.386600e+003,2.446159e+002
3.388529e+003,2.405512e+002
3.390457e+003,2.250060e+002
3.392386e+003,2.254636e+002
3.394314e+003,2.440302e+002
3.396243e+003,2.418134e+002
3.398171e+003,2.293540e+002
3.400100e+003,2.368768e+002
3.402028e+003,2.450503e+002
3.403957e+003,2.269734e+002
3.405885e+003,2.111909e+002
3.407813e+003,2.090958e+002
3.409742e+003,2.141458e+002
3.411670e+003,2.265161e+002
3.413599e+003,2.372675e+002
3.415527e+003,2.454745e+002
3.417456e+003,2.489210e+002
3.419384e+003,2.484665e+002
3.421313e+003,2.421846e+002
3.423241e+003,2.380016e+002
3.425170e+003,2.470639e+002
3.427098e+003,2.487097e+002
3.429027e+003,2.320288e+002
3.430955e+003,2.302816e+002
3.432884e+003,2.476443e+002
3.434812e+003,2.558769e+002
3.436740e+003,2.557493e+002
3.438669e+003,2.496434e+002
3.440597e+003,2.408566e+002
3.442526e+003,2.304289e+002
3.444454e+003,2.229103e+002
3.446383e+003,2.187821e+002
3.448311e+003,2.234098e+002
3.450240e+003,2.425130e+002
3.452168e+003,2.446794e+002
3.454097e+003,2.335617e+002
3.456025e+003,2.386696e+002
3.457954e+003,2.488873e+002
3.459882e+003,2.485384e+002
3.461811e+003,2.435283e+002
3.463739e+003,2.345300e+002
3.465667e+003,2.306000e+002
3.467596e+003,2.388705e+002
3.469524e+003,2.404752e+002
3.471453e+003,2.356128e+002
3.473381e+003,2.243177e+002
3.475310e+003,2.147434e+002
3.477238e+003,2.309450e+002
3.479167e+003,2.465065e+002
3.481095e+003,2.412301e+002
3.483024e+003,2.300428e+002
3.484952e+003,2.118272e+002
3.486881e+003,2.136343e+002
3.488809e+003,2.351171e+002
3.490738e+003,2.340438e+002
3.492666e+003,2.220521e+002
3.494594e+003,2.328922e+002
3.496523e+003,2.444872e+002
3.498451e+003,2.351056e+002
3.500380e+003,2.292577e+002
3.502308e+003,2.350724e+002
3.504237e+003,2.347619e+002
3.506165e+003,2.261316e+002
3.508094e+003,2.343267e+002
3.510022e+003,2.498232e+002
3.511951e+003,2.480160e+002
3.513879e+003,2.427073e+002
3.515808e+003,2.479700e+002
3.517736e+003,2.481360e+002
3.519665e+003,2.374834e+002
3.521593e+003,2.311515e+002
3.523521e+003,2.305094e+002
3.525450e+003,2.267800e+002
3.527378e+003,2.221673e+002
3.529307e+003,2.187101e+002
3.531235e+003,2.202712e+002
3.533164e+003,2.344175e+002
3.535092e+003,2.425945e+002
3.537021e+003,2.364980e+002
3.538949e+003,2.345334e+002
3.540878e+003,2.365890e+002
3.542806e+003,2.353846e+002
3.544735e+003,2.320858e+002
3.546663e+003,2.266660e+002
3.548592e+003,2.232056e+002
3.550520e+003,2.255551e+002
3.552448e+003,2.252828e+002
3.554377e+003,2.192657e+002
3.556305e+003,2.165536e+002
3.558234e+003,2.182160e+002
3.560162e+003,2.312730e+002
3.562091e+003,2.437968e+002
3.564019e+003,2.356274e+002
3.565948e+003,2.299212e+002
3.567876e+003,2.439475e+002
3.569805e+003,2.449760e+002
3.571733e+003,2.309254e+002
3.573662e+003,2.300575e+002
3.575590e+003,2.364989e+002
3.577519e+003,2.319419e+002
3.579447e+003,2.256932e+002
3.581376e+003,2.233469e+002
3.583304e+003,2.264370e+002
3.585233e+003,2.375362e+002
3.587161e+003,2.409362e+002
3.589090e+003,2.364806e+002
3.591018e+003,2.323461e+002
3.592947e+003,2.315148e+002
3.594875e+003,2.445112e+002
3.596803e+003,2.524369e+002
3.598732e+003,2.419289e+002
3.600660e+003,2.286491e+002
3.602589e+003,2.142098e+002
3.604517e+003,2.207026e+002
3.606446e+003,2.332280e+002
3.608374e+003,1.853501e+002
3.610303e+003,1.467043e+002
3.612231e+003,1.934270e+002
3.614160e+003,2.293984e+002
3.616088e+003,2.315929e+002
3.618017e+003,2.311786e+002
3.619945e+003,2.304637e+002
3.621874e+003,2.210644e+002
3.623802e+003,2.133985e+002
3.625730e+003,2.253210e+002
3.627659e+003,2.330770e+002
3.629587e+003,2.233890e+002
3.631516e+003,2.196005e+002
3.633444e+003,2.246532e+002
3.635373e+003,2.282092e+002
3.637301e+003,2.298553e+002
3.639230e+003,2.275316e+002
3.641158e+003,2.254252e+002
3.643087e+003,2.253941e+002
3.645015e+003,2.302443e+002
3.646944e+003,2.411174e+002
3.648872e+003,2.372585e+002
3.650801e+003,2.238216e+002
3.652729e+003,2.163752e+002
3.654657e+003,2.155249e+002
3.656586e+003,2.295436e+002
3.658514e+003,2.339397e+002
3.660443e+003,2.220578e+002
3.662371e+003,2.176476e+002
3.664300e+003,2.207198e+002
3.666228e+003,2.251479e+002
3.668157e+003,2.310176e+002
3.670085e+003,2.432916e+002
3.672014e+003,2.459502e+002
3.673942e+003,2.329154e+002
3.675871e+003,2.258250e+002
3.677799e+003,2.256762e+002
3.679728e+003,2.238441e+002
3.681656e+003,2.246351e+002
3.683584e+003,2.391453e+002
3.685513e+003,2.452498e+002
3.687441e+003,2.335500e+002
3.689370e+003,2.241893e+002
3.691298e+003,2.199959e+002
3.693227e+003,2.313847e+002
3.695155e+003,2.463764e+002
3.697084e+003,2.522214e+002
3.699012e+003,2.479821e+002
3.700941e+003,2.291471e+002
3.702869e+003,2.239687e+002
3.704798e+003,2.342586e+002
3.706726e+003,2.362849e+002
3.708655e+003,2.337096e+002
3.710583e+003,2.304516e+002
3.712511e+003,2.280256e+002
3.714440e+003,2.266135e+002
3.716368e+003,2.291144e+002
3.718297e+003,2.350522e+002
3.720225e+003,2.326068e+002
3.722154e+003,2.262262e+002
3.724082e+003,2.210145e+002
3.726011e+003,2.173950e+002
3.727939e+003,2.150922e+002
3.729868e+003,2.176716e+002
3.731796e+003,2.244310e+002
3.733725e+003,2.234679e+002
3.735653e+003,2.192567e+002
3.737582e+003,2.183650e+002
3.739510e+003,2.151910e+002
3.741438e+003,2.058344e+002
3.743367e+003,2.020139e+002
3.745295e+003,2.048968e+002
3.747224e+003,2.175210e+002
3.749152e+003,2.304325e+002
3.751081e+003,2.327950e+002
3.753009e+003,2.319756e+002
3.754938e+003,2.290698e+002
3.756866e+003,2.336304e+002
3.758795e+003,2.413549e+002
3.760723e+003,2.252768e+002
3.762652e+003,2.085073e+002
3.764580e+003,2.121925e+002
3.766509e+003,2.214454e+002
3.768437e+003,2.339702e+002
3.770365e+003,2.387548e+002
3.772294e+003,2.355582e+002
3.774222e+003,2.187924e+002
3.776151e+003,2.060092e+002
3.778079e+003,2.109398e+002
3.780008e+003,2.196783e+002
3.781936e+003,2.300144e+002
3.783865e+003,2.321564e+002
3.785793e+003,2.290111e+002
3.787722e+003,2.240022e+002
3.789650e+003,2.214288e+002
3.791579e+003,2.246573e+002
3.793507e+003,2.262809e+002
3.795436e+003,2.260690e+002
3.797364e+003,2.333822e+002
3.799292e+003,2.399155e+002
3.801221e+003,2.306230e+002
3.803149e+003,2.230383e+002
3.805078e+003,2.236973e+002
3.807006e+003,2.258304e+002
3.808935e+003,2.270121e+002
3.810863e+003,2.127342e+002
3.812792e+003,2.024490e+002
3.814720e+003,2.208082e+002
3.816649e+003,2.277448e+002
3.818577e+003,2.108663e+002
3.820506e+003,2.143149e+002
3.822434e+003,2.263636e+002
3.824363e+003,2.184000e+002
3.826291e+003,2.157344e+002
3.828219e+003,2.348942e+002
3.830148e+003,2.425570e+002
3.832076e+003,2.359133e+002
3.834005e+003,2.284137e+002
3.835933e+003,2.232464e+002
3.837862e+003,2.252208e+002
3.839790e+003,2.280906e+002
3.841719e+003,2.305292e+002
3.843647e+003,2.278901e+002
3.845576e+003,2.229789e+002
3.847504e+003,2.274329e+002
3.849433e+003,2.293085e+002
3.851361e+003,2.145259e+002
3.853290e+003,2.120394e+002
3.855218e+003,2.229686e+002
3.857146e+003,2.308349e+002
3.859075e+003,2.327473e+002
3.861003e+003,2.192701e+002
3.862932e+003,2.143278e+002
3.864860e+003,2.320986e+002
3.866789e+003,2.265315e+002
3.868717e+003,2.081329e+002
3.870646e+003,2.144557e+002
3.872574e+003,2.232744e+002
3.874503e+003,2.182076e+002
3.876431e+003,2.230121e+002
3.878360e+003,2.390292e+002
3.880288e+003,2.392443e+002
3.882217e+003,2.341233e+002
3.884145e+003,2.398041e+002
3.886073e+003,2.371756e+002
3.888002e+003,2.182249e+002
3.889930e+003,2.120074e+002
3.891859e+003,2.146427e+002
3.893787e+003,2.144141e+002
3.895716e+003,2.155195e+002
3.897644e+003,2.205813e+002
3.899573e+003,2.262909e+002
3.901501e+003,2.312478e+002
3.903430e+003,2.243373e+002
3.905358e+003,2.170764e+002
3.907287e+003,2.214202e+002
3.909215e+003,2.288185e+002
3.911144e+003,2.372887e+002
3.913072e+003,2.305595e+002
3.915000e+003,2.170663e+002
3.916929e+003,2.110433e+002
3.918857e+003,2.064840e+002
3.920786e+003,1.989854e+002
3.922714e+003,2.051885e+002
3.924643e+003,2.192560e+002
3.926571e+003,2.207468e+002
3.928500e+003,2.188503e+002
3.930428e+003,2.177396e+002
3.932357e+003,2.231402e+002
3.934285e+003,2.328497e+002
3.936214e+003,2.187877e+002
3.938142e+003,2.023956e+002
3.940071e+003,2.064432e+002
3.941999e+003,2.129503e+002
3.943927e+003,2.186749e+002
3.945856e+003,2.193552e+002
3.947784e+003,2.189019e+002
3.949713e+003,2.249566e+002
3.951641e+003,2.281737e+002
3.953570e+003,2.259045e+002
3.955498e+003,2.227941e+002
3.957427e+003,2.202892e+002
3.959355e+003,2.220470e+002
3.961284e+003,2.240752e+002
3.963212e+003,2.246597e+002
3.965141e+003,2.243294e+002
3.967069e+003,2.223742e+002
3.968998e+003,2.107284e+002
3.970926e+003,2.062998e+002
3.972854e+003,2.261285e+002
3.974783e+003,2.366644e+002
3.976711e+003,2.358775e+002
3.978640e+003,2.347167e+002
3.980568e+003,2.306905e+002
3.982497e+003,2.174445e+002
3.984425e+003,2.136290e+002
3.986354e+003,2.231993e+002
3.988282e+003,2.220559e+002
3.990211e+003,2.171470e+002
3.992139e+003,2.172031e+002
3.994068e+003,2.163410e+002
3.995996e+003,2.132386e+002
3.997925e+003,2.147877e+002
3.999853e+003,2.191944e+002
4.001781e+003,2.280859e+002
4.003710e+003,2.257759e+002
4.005638e+003,2.058125e+002
4.007567e+003,2.048717e+002
4.009495e+003,2.134610e+002
4.011424e+003,2.070403e+002
4.013352e+003,2.017441e+002
4.015281e+003,2.054106e+002
4.017209e+003,2.102104e+002
4.019138e+003,2.144398e+002
4.021066e+003,2.146186e+002
4.022995e+003,2.120044e+002
4.024923e+003,2.064655e+002
4.026852e+003,2.056842e+002
4.028780e+003,2.085504e+002
4.030708e+003,2.091032e+002
4.032637e+003,2.115921e+002
4.034565e+003,2.202696e+002
4.036494e+003,2.192189e+002
4.038422e+003,2.111958e+002
4.040351e+003,2.143990e+002
4.042279e+003,2.169209e+002
4.044208e+003,2.060052e+002
4.046136e+003,2.103350e+002
4.048065e+003,2.250768e+002
4.049993e+003,2.230433e+002
4.051922e+003,2.182859e+002
4.053850e+003,2.200056e+002
4.055779e+003,2.199494e+002
4.057707e+003,2.170201e+002
4.059635e+003,2.078222e+002
4.061564e+003,1.988810e+002
4.063492e+003,1.937683e+002
4.065421e+003,1.922868e+002
4.067349e+003,1.950381e+002
4.069278e+003,2.097762e+002
4.071206e+003,2.244739e+002
4.073135e+003,2.326635e+002
4.075063e+003,2.303750e+002
4.076992e+003,2.197912e+002
4.078920e+003,2.090202e+002
4.080849e+003,2.061569e+002
4.082777e+003,2.214786e+002
4.084706e+003,2.238838e+002
4.086634e+003,2.145708e+002
4.088563e+003,2.030098e+002
4.090491e+003,2.013935e+002
4.092419e+003,2.205314e+002
4.094348e+003,2.195241e+002
4.096276e+003,2.035971e+002
4.098205e+003,2.100741e+002
4.100133e+003,2.143415e+002
4.102062e+003,1.996815e+002
4.103990e+003,1.974801e+002
4.105919e+003,2.040100e+002
4.107847e+003,2.004351e+002
4.109776e+003,1.956936e+002
4.111704e+003,1.942551e+002
4.113633e+003,1.917385e+002
4.115561e+003,1.915656e+002
4.117490e+003,2.040413e+002
4.119418e+003,2.174037e+002
4.121347e+003,2.283427e+002
4.123275e+003,2.211407e+002
4.125204e+003,2.051780e+002
4.127132e+003,1.964187e+002
4.129061e+003,1.957613e+002
4.130989e+003,2.030473e+002
4.132917e+003,2.105668e+002
4.134846e+003,2.127869e+002
4.136774e+003,1.947848e+002
4.138703e+003,1.897998e+002
4.140631e+003,2.063833e+002
4.142560e+003,2.115416e+002
4.144488e+003,2.118697e+002
4.146417e+003,2.146283e+002
4.148345e+003,2.191138e+002
4.150273e+003,2.246018e+002
4.152202e+003,2.132367e+002
4.154130e+003,1.997313e+002
4.156059e+003,1.964668e+002
4.157987e+003,2.000735e+002
4.159916e+003,2.076465e+002
4.161844e+003,2.037254e+002
4.163773e+003,1.987149e+002
4.165701e+003,1.986299e+002
4.167630e+003,2.049798e+002
4.169558e+003,2.137209e+002
4.171487e+003,2.130473e+002
4.173415e+003,2.101453e+002
4.175344e+003,2.078880e+002
4.177272e+003,2.078776e+002
4.179201e+003,2.081563e+002
4.181129e+003,2.046888e+002
4.183058e+003,2.001836e+002
4.184986e+003,1.955546e+002
4.186915e+003,1.989364e+002
4.188843e+003,2.035731e+002
4.190771e+003,2.011361e+002
4.192700e+003,1.956841e+002
4.194628e+003,1.894157e+002
4.196557e+003,2.063217e+002
4.198485e+003,2.222418e+002
4.200414e+003,2.178868e+002
4.202342e+003,2.124363e+002
4.204271e+003,2.086469e+002
4.206199e+003,2.094501e+002
4.208127e+003,2.098603e+002
4.210056e+003,2.066446e+002
4.211984e+003,2.093754e+002
4.213913e+003,2.133643e+002
4.215841e+003,2.071261e+002
4.217770e+003,2.005871e+002
4.219698e+003,1.965990e+002
4.221627e+003,1.872376e+002
4.223555e+003,1.835782e+002
4.225484e+003,2.058869e+002
4.227412e+003,2.178194e+002
4.229341e+003,2.167587e+002
4.231269e+003,2.196885e+002
4.233198e+003,2.207401e+002
4.235126e+003,2.131929e+002
4.237055e+003,2.136493e+002
4.238983e+003,2.160500e+002
4.240912e+003,1.969678e+002
4.242840e+003,1.918660e+002
4.244769e+003,2.162187e+002
4.246697e+003,2.089213e+002
4.248625e+003,1.923944e+002
4.250554e+003,1.911870e+002
