1.159199e+002,1.448138e+001
1.178484e+002,1.066941e+001
1.197769e+002,1.252163e+001
1.217053e+002,2.056667e+001
1.236338e+002,2.550076e+001
1.255623e+002,2.637704e+001
1.274907e+002,2.464780e+001
1.294192e+002,2.172145e+001
1.313477e+002,1.485613e+001
1.332761e+002,1.014311e+001
1.352046e+002,1.072369e+001
1.371331e+002,1.797923e+001
1.390615e+002,2.247234e+001
1.409900e+002,2.087896e+001
1.429185e+002,1.591386e+001
1.448469e+002,1.231709e+001
1.467754e+002,9.589859e+000
1.487039e+002,8.542830e+000
1.506323e+002,1.085893e+001
1.525608e+002,1.718794e+001
1.544893e+002,2.085814e+001
1.564177e+002,1.955273e+001
1.583462e+002,1.444295e+001
1.602747e+002,1.105136e+001
1.622031e+002,9.580087e+000
1.641316e+002,9.173952e+000
1.660601e+002,9.329882e+000
1.679885e+002,1.039488e+001
1.699170e+002,1.121262e+001
1.718455e+002,1.164269e+001
1.737739e+002,1.165307e+001
1.757024e+002,1.133813e+001
1.776309e+002,1.029012e+001
1.795593e+002,9.145252e+000
1.814878e+002,8.436951e+000
1.834163e+002,9.006362e+000
1.853447e+002,9.151292e+000
1.872732e+002,8.248335e+000
1.892017e+002,6.413691e+000
1.911301e+002,5.079378e+000
1.930586e+002,4.289036e+000
1.949871e+002,4.097811e+000
1.969155e+002,4.802734e+000
1.988440e+002,8.386681e+000
2.007725e+002,1.089118e+001
2.027009e+002,1.053137e+001
2.046294e+002,7.162498e+000
2.065579e+002,4.398366e+000
2.084864e+002,3.237102e+000
2.104148e+002,2.977462e+000
2.123433e+002,1.957529e+000
2.142718e+002,-1.372632e+000
2.162002e+002,-3.609411e+000
2.181287e+002,-2.997682e+000
2.200572e+002,2.239348e+000
2.219856e+002,5.677722e+000
2.239141e+002,6.152332e+000
2.258426e+002,4.408077e+000
2.277710e+002,2.639580e+000
2.296995e+002,-2.794770e-002
2.316280e+002,-1.695631e+000
2.335564e+002,-1.530019e+000
2.354849e+002,2.781144e+000
2.374134e+002,5.867425e+000
2.393418e+002,7.076712e+000
2.412703e+002,7.012019e+000
2.431988e+002,7.081184e+000
2.451272e+002,8.180408e+000
2.470557e+002,8.775854e+000
2.489842e+002,7.827226e+000
2.509126e+002,4.170278e+000
2.528411e+002,1.412116e+000
2.547696e+002,2.652239e-001
2.566980e+002,3.905188e-001
2.586265e+002,1.166941e+000
2.605550e+002,3.487113e+000
2.624834e+002,5.784224e+000
2.644119e+002,7.119362e+000
2.663404e+002,7.302186e+000
2.682688e+002,7.504014e+000
2.701973e+002,8.036242e+000
2.721258e+002,8.815084e+000
2.740542e+002,9.510502e+000
2.759827e+002,1.015289e+001
2.779112e+002,1.068892e+001
2.798396e+002,1.126731e+001
2.817681e+002,1.211704e+001
2.836966e+002,1.202516e+001
2.856250e+002,9.858528e+000
2.875535e+002,6.315065e+000
2.894820e+002,4.448184e+000
2.914104e+002,5.215309e+000
2.933389e+002,6.546757e+000
2.952674e+002,7.633640e+000
2.971958e+002,8.600526e+000
2.991243e+002,8.934292e+000
3.010528e+002,7.946800e+000
3.029813e+002,6.240988e+000
3.049097e+002,5.775308e+000
3.068382e+002,8.075584e+000
3.087667e+002,9.904007e+000
3.106951e+002,9.454521e+000
3.126236e+002,5.556041e+000
3.145521e+002,3.202583e+000
3.164805e+002,4.290677e+000
3.184090e+002,7.019891e+000
3.203375e+002,7.491727e+000
3.222659e+002,3.907754e+000
3.241944e+002,7.020121e-001
3.261229e+002,-3.572588e-001
3.280513e+002,1.820652e+000
3.299798e+002,3.504129e+000
3.319083e+002,4.240921e+000
3.338367e+002,4.616941e+000
3.357652e+002,5.610506e+000
3.376937e+002,8.235323e+000
3.396221e+002,9.704864e+000
3.415506e+002,8.520326e+000
3.434791e+002,3.725012e+000
3.454075e+002,1.277491e+000
3.473360e+002,3.100978e+000
3.492645e+002,6.177211e+000
3.511929e+002,7.792591e+000
3.531214e+002,7.040754e+000
3.550499e+002,6.501651e+000
3.569783e+002,7.182891e+000
3.589068e+002,9.016726e+000
3.608353e+002,9.730867e+000
3.627637e+002,8.251419e+000
3.646922e+002,6.489471e+000
3.666207e+002,5.572116e+000
3.685491e+002,5.900702e+000
3.704776e+002,6.288904e+000
3.724061e+002,6.242710e+000
3.743345e+002,6.081299e+000
3.762630e+002,6.951334e+000
3.781915e+002,1.052400e+001
3.801199e+002,1.314962e+001
3.820484e+002,1.319935e+001
3.839769e+002,9.520764e+000
3.859053e+002,5.742779e+000
3.878338e+002,3.771320e-001
3.897623e+002,-4.481108e+000
3.916907e+002,-5.496111e+000
3.936192e+002,-4.198704e-001
3.955477e+002,4.628485e+000
3.974761e+002,7.431585e+000
3.994046e+002,7.473343e+000
4.013331e+002,7.994094e+000
4.032615e+002,9.628033e+000
4.051900e+002,1.131006e+001
4.071185e+002,1.218769e+001
4.090469e+002,1.214454e+001
4.109754e+002,1.173963e+001
4.129039e+002,1.086807e+001
4.148323e+002,9.667342e+000
4.167608e+002,9.022622e+000
4.186893e+002,9.274890e+000
4.206177e+002,9.719985e+000
4.225462e+002,1.049329e+001
4.244747e+002,1.195727e+001
4.264032e+002,1.151273e+001
4.283316e+002,6.675901e+000
4.302601e+002,2.838731e-001
4.321886e+002,-2.803323e+000
4.341170e+002,-1.860864e+000
4.360455e+002,5.329702e-001
4.379740e+002,4.689743e+000
4.399024e+002,1.038057e+001
4.418309e+002,1.380301e+001
4.437594e+002,1.223706e+001
4.456878e+002,1.000590e+001
4.476163e+002,1.046861e+001
4.495448e+002,1.436689e+001
4.514732e+002,1.778580e+001
4.534017e+002,2.009459e+001
4.553302e+002,2.133528e+001
4.572586e+002,2.122002e+001
4.591871e+002,1.791207e+001
4.611156e+002,1.496628e+001
4.630440e+002,1.336731e+001
4.649725e+002,1.311390e+001
4.669010e+002,1.376218e+001
4.688294e+002,1.671078e+001
4.707579e+002,1.970661e+001
4.726864e+002,2.096468e+001
4.746148e+002,1.868812e+001
4.765433e+002,1.665555e+001
4.784718e+002,1.468050e+001
4.804002e+002,1.315600e+001
4.823287e+002,1.296643e+001
4.842572e+002,1.549979e+001
4.861856e+002,1.767155e+001
4.881141e+002,1.808415e+001
4.900426e+002,1.605423e+001
4.919710e+002,1.456651e+001
4.938995e+002,1.325973e+001
4.958280e+002,1.270771e+001
4.977564e+002,1.348331e+001
4.996849e+002,1.600056e+001
5.016134e+002,1.858394e+001
5.035418e+002,2.064875e+001
5.054703e+002,2.239082e+001
5.073988e+002,2.469993e+001
5.093272e+002,2.927829e+001
5.112557e+002,3.275409e+001
5.131842e+002,3.306225e+001
5.151127e+002,3.044894e+001
5.170411e+002,2.863697e+001
5.189696e+002,3.024196e+001
5.208981e+002,3.168448e+001
5.228265e+002,2.957524e+001
5.247550e+002,2.117829e+001
5.266835e+002,1.477741e+001
5.286119e+002,1.230665e+001
5.305404e+002,1.255692e+001
5.324689e+002,1.353837e+001
5.343973e+002,1.700365e+001
5.363258e+002,1.899372e+001
5.382543e+002,1.746247e+001
5.401827e+002,1.200633e+001
5.421112e+002,8.487095e+000
5.440397e+002,8.011310e+000
5.459681e+002,8.720842e+000
5.478966e+002,9.663289e+000
5.498251e+002,1.118272e+001
5.517535e+002,1.172652e+001
5.536820e+002,1.038651e+001
5.556105e+002,8.295438e+000
5.575389e+002,7.293484e+000
5.594674e+002,7.627859e+000
5.613959e+002,8.299770e+000
5.633243e+002,9.168595e+000
5.652528e+002,1.017650e+001
5.671813e+002,1.106890e+001
5.691097e+002,1.208286e+001
5.710382e+002,1.275609e+001
5.729667e+002,1.267762e+001
5.748951e+002,1.175233e+001
5.768236e+002,1.118007e+001
5.787521e+002,1.156294e+001
5.806805e+002,1.201330e+001
5.826090e+002,1.176274e+001
5.845375e+002,1.012806e+001
5.864659e+002,9.115575e+000
5.883944e+002,9.679326e+000
5.903229e+002,1.083962e+001
5.922513e+002,1.054221e+001
5.941798e+002,7.796728e+000
5.961083e+002,5.676556e+000
5.980367e+002,5.476791e+000
5.999652e+002,6.993602e+000
6.018937e+002,8.380939e+000
6.038221e+002,9.684647e+000
6.057506e+002,1.082904e+001
6.076791e+002,1.224416e+001
6.096075e+002,1.394505e+001
6.115360e+002,1.372221e+001
6.134645e+002,8.620668e+000
6.153929e+002,3.392354e+000
6.173214e+002,1.692936e+000
6.192499e+002,6.223283e+000
6.211783e+002,9.318427e+000
6.231068e+002,9.492163e+000
6.250353e+002,8.326322e+000
6.269637e+002,8.434796e+000
6.288922e+002,1.060976e+001
6.308207e+002,1.203590e+001
6.327491e+002,1.095098e+001
6.346776e+002,8.159513e+000
6.366061e+002,7.089705e+000
6.385345e+002,1.002938e+001
6.404630e+002,1.240101e+001
6.423915e+002,1.251849e+001
6.443199e+002,1.055653e+001
6.462484e+002,8.405987e+000
6.481769e+002,4.777140e+000
6.501053e+002,2.563154e+000
6.520338e+002,3.787573e+000
6.539623e+002,1.066097e+001
6.558907e+002,1.456740e+001
6.578192e+002,1.344747e+001
6.597477e+002,1.069046e+001
6.616761e+002,9.433952e+000
6.636046e+002,9.824582e+000
6.655331e+002,1.042732e+001
6.674615e+002,1.149080e+001
6.693900e+002,1.237309e+001
6.713185e+002,1.216264e+001
6.732469e+002,8.977563e+000
6.751754e+002,6.866987e+000
6.771039e+002,5.966568e+000
6.790323e+002,6.566959e+000
6.809608e+002,9.380625e+000
6.828893e+002,1.680702e+001
6.848177e+002,2.232417e+001
6.867462e+002,2.293622e+001
6.886747e+002,1.889403e+001
6.906031e+002,1.530294e+001
6.925316e+002,1.087649e+001
6.944601e+002,8.051882e+000
6.963885e+002,9.332420e+000
6.983170e+002,1.435602e+001
7.002455e+002,1.654601e+001
7.021740e+002,1.288570e+001
7.041024e+002,8.380151e+000
7.060309e+002,5.950276e+000
7.079594e+002,6.269451e+000
7.098878e+002,6.633367e+000
7.118163e+002,6.468203e+000
7.137448e+002,6.578029e+000
7.156732e+002,8.264998e+000
7.176017e+002,1.201192e+001
7.195302e+002,1.404569e+001
7.214586e+002,1.165493e+001
7.233871e+002,8.120223e+000
7.253156e+002,6.851656e+000
7.272440e+002,9.702890e+000
7.291725e+002,1.171192e+001
7.311010e+002,1.221782e+001
7.330294e+002,1.162582e+001
7.349579e+002,1.049625e+001
7.368864e+002,8.411990e+000
7.388149e+002,6.817126e+000
7.407433e+002,6.181261e+000
7.426718e+002,6.347104e+000
7.446003e+002,7.135525e+000
7.465287e+002,9.652528e+000
7.484572e+002,1.148376e+001
7.503857e+002,1.209352e+001
7.523141e+002,1.159272e+001
7.542426e+002,1.056052e+001
7.561711e+002,8.270049e+000
7.580995e+002,6.581280e+000
7.600280e+002,6.546692e+000
7.619565e+002,7.847285e+000
7.638849e+002,8.919296e+000
7.658134e+002,9.975554e+000
7.677419e+002,1.047614e+001
7.696703e+002,9.928339e+000
7.715988e+002,8.330440e+000
7.735273e+002,7.263497e+000
7.754557e+002,6.873331e+000
7.773842e+002,6.861762e+000
7.793127e+002,7.009890e+000
7.812411e+002,7.319441e+000
7.831696e+002,8.188716e+000
7.850981e+002,1.080901e+001
7.870266e+002,1.298302e+001
7.889550e+002,1.345294e+001
7.908835e+002,1.180463e+001
7.928120e+002,1.096228e+001
7.947404e+002,1.185525e+001
7.966689e+002,1.278503e+001
7.985974e+002,1.264631e+001
8.005258e+002,1.143233e+001
8.024543e+002,1.049748e+001
8.043828e+002,1.067145e+001
8.063112e+002,1.069004e+001
8.082397e+002,9.581973e+000
8.101682e+002,6.613345e+000
8.120966e+002,5.075426e+000
8.140251e+002,5.941034e+000
8.159536e+002,7.498023e+000
8.178820e+002,8.844418e+000
8.198105e+002,1.003130e+001
8.217390e+002,1.047138e+001
8.236674e+002,9.235744e+000
8.255959e+002,7.811618e+000
8.275244e+002,6.946702e+000
8.294528e+002,6.484076e+000
8.313813e+002,7.136079e+000
8.333098e+002,1.025673e+001
8.352382e+002,1.350162e+001
8.371667e+002,1.491767e+001
8.390952e+002,1.452918e+001
8.410236e+002,1.384664e+001
8.429521e+002,1.257323e+001
8.448806e+002,1.156765e+001
8.468090e+002,1.152298e+001
8.487375e+002,1.304078e+001
8.506660e+002,1.395871e+001
8.525944e+002,1.436247e+001
8.545229e+002,1.413753e+001
8.564514e+002,1.259969e+001
8.583798e+002,9.603223e+000
8.603083e+002,8.161384e+000
8.622368e+002,1.027467e+001
8.641652e+002,1.277993e+001
8.660937e+002,1.365560e+001
8.680222e+002,1.266231e+001
8.699506e+002,1.106919e+001
8.718791e+002,7.458367e+000
8.738076e+002,4.517012e+000
8.757360e+002,4.376333e+000
8.776645e+002,7.437223e+000
8.795930e+002,1.004961e+001
8.815214e+002,1.226727e+001
8.834499e+002,1.370369e+001
8.853784e+002,1.422092e+001
8.873068e+002,1.384180e+001
8.892353e+002,1.255528e+001
8.911638e+002,7.948646e+000
8.930922e+002,4.570614e+000
8.950207e+002,5.379769e+000
8.969492e+002,1.112807e+001
8.988776e+002,1.465724e+001
9.008061e+002,1.380912e+001
9.027346e+002,1.285569e+001
9.046630e+002,1.475613e+001
9.065915e+002,1.865615e+001
9.085200e+002,2.012903e+001
9.104484e+002,1.690678e+001
9.123769e+002,1.351454e+001
9.143054e+002,1.198066e+001
9.162338e+002,1.218692e+001
9.181623e+002,1.147629e+001
9.200908e+002,7.653031e+000
9.220192e+002,5.367701e+000
9.239477e+002,7.777857e+000
9.258762e+002,1.316416e+001
9.278046e+002,1.531386e+001
9.297331e+002,1.229484e+001
9.316616e+002,9.167685e+000
9.335900e+002,7.491641e+000
9.355185e+002,7.144316e+000
9.374470e+002,7.951814e+000
9.393754e+002,1.171675e+001
9.413039e+002,1.427751e+001
9.432324e+002,1.416204e+001
9.451608e+002,1.263373e+001
9.470893e+002,1.253877e+001
9.490178e+002,1.507987e+001
9.509462e+002,1.569534e+001
9.528747e+002,1.021706e+001
9.548032e+002,3.783943e+000
9.567316e+002,2.729936e+000
9.586601e+002,9.245619e+000
9.605886e+002,1.370641e+001
9.625170e+002,1.322568e+001
9.644455e+002,1.090213e+001
9.663740e+002,9.378073e+000
9.683024e+002,9.230046e+000
9.702309e+002,8.439440e+000
9.721594e+002,5.534544e+000
9.740878e+002,3.123521e+000
9.760163e+002,3.329480e+000
9.779448e+002,5.919062e+000
9.798733e+002,8.810404e+000
9.818018e+002,1.267215e+001
9.837302e+002,1.560975e+001
9.856587e+002,1.651609e+001
9.875872e+002,1.535410e+001
9.895156e+002,1.424836e+001
9.914441e+002,1.235509e+001
9.933726e+002,1.145247e+001
9.953010e+002,1.312974e+001
9.972295e+002,1.638599e+001
9.991580e+002,1.738553e+001
1.001086e+003,1.504202e+001
1.003015e+003,1.278430e+001
1.004943e+003,1.163244e+001
1.006872e+003,1.134608e+001
1.008800e+003,1.188496e+001
1.010729e+003,1.423190e+001
1.012657e+003,1.499894e+001
1.014586e+003,1.188375e+001
1.016514e+003,8.029787e+000
1.018443e+003,7.021395e+000
1.020371e+003,1.042789e+001
1.022300e+003,1.293091e+001
1.024228e+003,1.448623e+001
1.026156e+003,1.504646e+001
1.028085e+003,1.381367e+001
1.030013e+003,1.104617e+001
1.031942e+003,9.971737e+000
1.033870e+003,1.291658e+001
1.035799e+003,1.520617e+001
1.037727e+003,1.457147e+001
1.039656e+003,1.120994e+001
1.041584e+003,7.800152e+000
1.043513e+003,1.943417e+000
1.045441e+003,-1.088960e+000
1.047370e+003,1.901147e+000
1.049298e+003,8.271710e+000
1.051227e+003,1.186196e+001
1.053155e+003,1.225195e+001
1.055083e+003,1.155383e+001
1.057012e+003,8.326513e+000
1.058940e+003,5.440514e+000
1.060869e+003,6.330560e+000
1.062797e+003,1.192932e+001
1.064726e+003,1.538937e+001
1.066654e+003,1.367975e+001
1.068583e+003,1.108243e+001
1.070511e+003,9.875570e+000
1.072440e+003,1.022057e+001
1.074368e+003,1.023795e+001
1.076297e+003,9.365283e+000
1.078225e+003,8.834785e+000
1.080154e+003,9.106930e+000
1.082082e+003,1.007081e+001
1.084010e+003,1.150024e+001
1.085939e+003,1.398623e+001
1.087867e+003,1.543656e+001
1.089796e+003,1.388646e+001
1.091724e+003,1.154991e+001
1.093653e+003,1.114650e+001
1.095581e+003,1.342577e+001
1.097510e+003,1.519092e+001
1.099438e+003,1.606940e+001
1.101367e+003,1.636721e+001
1.103295e+003,1.618034e+001
1.105224e+003,1.547074e+001
1.107152e+003,1.469270e+001
1.109081e+003,1.416371e+001
1.111009e+003,1.323747e+001
1.112938e+003,1.128879e+001
1.114866e+003,8.807293e+000
1.116794e+003,6.902062e+000
1.118723e+003,5.640990e+000
1.120651e+003,4.842402e+000
1.122580e+003,3.752466e+000
1.124508e+003,3.521443e+000
1.126437e+003,5.984953e+000
1.128365e+003,1.295728e+001
1.130294e+003,1.677747e+001
1.132222e+003,1.511241e+001
1.134151e+003,1.238084e+001
1.136079e+003,1.070634e+001
1.138008e+003,1.007186e+001
1.139936e+003,9.765346e+000
1.141865e+003,1.057949e+001
1.143793e+003,1.052326e+001
1.145721e+003,7.164416e+000
1.147650e+003,3.205908e+000
1.149578e+003,3.197370e+000
1.151507e+003,8.284027e+000
1.153435e+003,1.233129e+001
1.155364e+003,1.314557e+001
1.157292e+003,1.298215e+001
1.159221e+003,1.325506e+001
1.161149e+003,1.411465e+001
1.163078e+003,1.433171e+001
1.165006e+003,1.389538e+001
1.166935e+003,1.288239e+001
1.168863e+003,1.016123e+001
1.170792e+003,6.916430e+000
1.172720e+003,6.951664e+000
1.174648e+003,1.212086e+001
1.176577e+003,1.531871e+001
1.178505e+003,1.238682e+001
1.180434e+003,8.872543e+000
1.182362e+003,1.065722e+001
1.184291e+003,1.745177e+001
1.186219e+003,2.045280e+001
1.188148e+003,1.556801e+001
1.190076e+003,1.069841e+001
1.192005e+003,9.425695e+000
1.193933e+003,1.071650e+001
1.195862e+003,1.109944e+001
1.197790e+003,9.401188e+000
1.199719e+003,8.676409e+000
1.201647e+003,9.868697e+000
1.203575e+003,1.166507e+001
1.205504e+003,1.310760e+001
1.207432e+003,1.423845e+001
1.209361e+003,1.425203e+001
1.211289e+003,1.248260e+001
1.213218e+003,1.037502e+001
1.215146e+003,7.894736e+000
1.217075e+003,5.645738e+000
1.219003e+003,5.218505e+000
1.220932e+003,7.506610e+000
1.222860e+003,8.387382e+000
1.224789e+003,3.660264e+000
1.226717e+003,-3.872697e-001
1.228646e+003,2.135987e+000
1.230574e+003,1.233436e+001
1.232502e+003,1.785486e+001
1.234431e+003,1.431536e+001
1.236359e+003,1.072410e+001
1.238288e+003,9.187354e+000
1.240216e+003,9.221908e+000
1.242145e+003,1.003687e+001
1.244073e+003,1.227745e+001
1.246002e+003,1.363811e+001
1.247930e+003,1.323718e+001
1.249859e+003,1.254316e+001
1.251787e+003,1.288480e+001
1.253716e+003,1.385275e+001
1.255644e+003,1.335773e+001
1.257573e+003,1.027718e+001
1.259501e+003,7.957096e+000
1.261429e+003,8.415449e+000
1.263358e+003,9.852914e+000
1.265286e+003,1.036629e+001
1.267215e+003,9.859680e+000
1.269143e+003,8.985476e+000
1.271072e+003,7.311541e+000
1.273000e+003,5.814477e+000
1.274929e+003,3.991729e+000
1.276857e+003,2.577497e+000
1.278786e+003,4.051121e+000
1.280714e+003,1.306022e+001
1.282643e+003,1.825638e+001
1.284571e+003,1.673553e+001
1.286500e+003,1.344229e+001
1.288428e+003,1.210188e+001
1.290356e+003,1.256470e+001
1.292285e+003,1.263558e+001
1.294213e+003,1.205702e+001
1.296142e+003,1.145446e+001
1.298070e+003,1.117797e+001
1.299999e+003,1.091177e+001
1.301927e+003,9.779513e+000
1.303856e+003,7.610694e+000
1.305784e+003,7.753741e+000
1.307713e+003,1.304413e+001
1.309641e+003,1.760051e+001
1.311570e+003,1.828926e+001
1.313498e+003,1.650149e+001
1.315427e+003,1.630273e+001
1.317355e+003,2.028726e+001
1.319283e+003,2.003659e+001
1.321212e+003,9.829524e+000
1.323140e+003,1.639066e-001
1.325069e+003,-1.289377e+000
1.326997e+003,4.558495e+000
1.328926e+003,7.735255e+000
1.330854e+003,6.269270e+000
1.332783e+003,5.506250e+000
1.334711e+003,6.239341e+000
1.336640e+003,8.061899e+000
1.338568e+003,1.163837e+001
1.340497e+003,1.664200e+001
1.342425e+003,1.833585e+001
1.344354e+003,1.397244e+001
1.346282e+003,1.073464e+001
1.348210e+003,1.343895e+001
1.350139e+003,1.770401e+001
1.352068e+003,1.812060e+001
1.353996e+003,1.443000e+001
1.355924e+003,1.081181e+001
1.357853e+003,6.869147e+000
1.359781e+003,4.513179e+000
1.361710e+003,5.468493e+000
1.363638e+003,8.161401e+000
1.365567e+003,9.211275e+000
1.367495e+003,7.331888e+000
1.369424e+003,7.363709e+000
1.371352e+003,1.157496e+001
1.373281e+003,1.548226e+001
1.375209e+003,1.692488e+001
1.377138e+003,1.644680e+001
1.379066e+003,1.568323e+001
1.380995e+003,1.386033e+001
1.382923e+003,1.327750e+001
1.384851e+003,1.638881e+001
1.386780e+003,1.859411e+001
1.388708e+003,1.553097e+001
1.390637e+003,8.917639e+000
1.392565e+003,6.274213e+000
1.394494e+003,9.161437e+000
1.396422e+003,1.113521e+001
1.398351e+003,9.965488e+000
1.400279e+003,7.992344e+000
1.402208e+003,6.333721e+000
1.404136e+003,5.172239e+000
1.406065e+003,5.308761e+000
1.407993e+003,6.915527e+000
1.409922e+003,9.452155e+000
1.411850e+003,1.460438e+001
1.413778e+003,1.894313e+001
1.415707e+003,1.954451e+001
1.417635e+003,1.680102e+001
1.419564e+003,1.506584e+001
1.421492e+003,1.557605e+001
1.423421e+003,1.482922e+001
1.425349e+003,1.084528e+001
1.427278e+003,6.492115e+000
1.429206e+003,3.606730e+000
1.431135e+003,2.211035e+000
1.433063e+003,3.041816e+000
1.434992e+003,9.343098e+000
1.436920e+003,1.340822e+001
1.438849e+003,1.290587e+001
1.440777e+003,1.101393e+001
1.442705e+003,1.046546e+001
1.444634e+003,1.116166e+001
1.446562e+003,1.074257e+001
1.448491e+003,7.219376e+000
1.450419e+003,6.074830e+000
1.452348e+003,1.120547e+001
1.454276e+003,1.668944e+001
1.456205e+003,1.754717e+001
1.458133e+003,1.429466e+001
1.460062e+003,9.645631e+000
1.461990e+003,1.809396e+000
1.463919e+003,-2.319354e+000
1.465847e+003,2.304480e+000
1.467776e+003,8.613626e+000
1.469704e+003,1.153407e+001
1.471632e+003,1.190001e+001
1.473561e+003,1.239042e+001
1.475489e+003,1.308729e+001
1.477418e+003,1.415537e+001
1.479346e+003,1.736451e+001
1.481275e+003,1.906924e+001
1.483203e+003,1.565772e+001
1.485132e+003,8.813095e+000
1.487060e+003,4.929420e+000
1.488989e+003,4.525302e+000
1.490917e+003,5.833148e+000
1.492846e+003,1.105396e+001
1.494774e+003,1.520095e+001
1.496703e+003,1.494106e+001
1.498631e+003,1.182645e+001
1.500559e+003,1.049067e+001
1.502488e+003,1.181138e+001
1.504416e+003,1.238929e+001
1.506345e+003,1.121028e+001
1.508273e+003,1.013043e+001
1.510202e+003,1.029691e+001
1.512130e+003,1.091410e+001
1.514059e+003,1.018560e+001
1.515987e+003,6.880357e+000
1.517916e+003,6.089871e+000
1.519844e+003,1.049904e+001
1.521773e+003,1.381497e+001
1.523701e+003,1.334817e+001
1.525630e+003,1.117603e+001
1.527558e+003,1.013021e+001
1.529486e+003,1.045149e+001
1.531415e+003,9.569167e+000
1.533343e+003,4.437365e+000
1.535272e+003,2.303914e+000
1.537200e+003,8.103971e+000
1.539129e+003,1.474295e+001
1.541057e+003,1.488348e+001
1.542986e+003,9.442706e+000
1.544914e+003,6.907069e+000
1.546843e+003,8.491099e+000
1.548771e+003,9.781020e+000
1.550700e+003,9.352799e+000
1.552628e+003,8.891098e+000
1.554557e+003,1.007378e+001
1.556485e+003,1.193127e+001
1.558413e+003,1.151624e+001
1.560342e+003,8.198707e+000
1.562270e+003,6.747118e+000
1.564199e+003,9.412987e+000
1.566127e+003,1.203618e+001
1.568056e+003,1.286371e+001
1.569984e+003,1.232783e+001
1.571913e+003,1.024966e+001
1.573841e+003,6.789955e+000
1.575770e+003,6.137118e+000
1.577698e+003,1.018199e+001
1.579627e+003,1.370924e+001
1.581555e+003,1.486123e+001
1.583484e+003,1.470264e+001
1.585412e+003,1.354893e+001
1.587340e+003,1.179462e+001
1.589269e+003,1.130152e+001
1.591197e+003,1.259693e+001
1.593126e+003,1.330244e+001
1.595054e+003,1.246191e+001
1.596983e+003,1.140927e+001
1.598911e+003,1.081011e+001
1.600840e+003,1.050116e+001
1.602768e+003,1.032125e+001
1.604697e+003,1.032870e+001
1.606625e+003,9.527872e+000
1.608554e+003,6.866496e+000
1.610482e+003,5.126944e+000
1.612411e+003,6.022948e+000
1.614339e+003,7.604444e+000
1.616267e+003,7.878750e+000
1.618196e+003,7.128154e+000
1.620124e+003,7.981476e+000
1.622053e+003,1.124477e+001
1.623981e+003,1.392161e+001
1.625910e+003,1.643479e+001
1.627838e+003,1.704673e+001
1.629767e+003,1.333265e+001
1.631695e+003,7.712029e+000
1.633624e+003,5.019042e+000
1.635552e+003,5.713109e+000
1.637481e+003,6.012737e+000
1.639409e+003,5.626491e+000
1.641338e+003,4.929923e+000
1.643266e+003,2.135797e+000
1.645194e+003,7.620869e-001
1.647123e+003,5.830208e+000
1.649051e+003,1.541006e+001
1.650980e+003,1.762744e+001
1.652908e+003,8.727300e+000
1.654837e+003,3.457408e+000
1.656765e+003,6.426038e+000
1.658694e+003,9.673495e+000
1.660622e+003,9.750192e+000
1.662551e+003,9.106894e+000
1.664479e+003,1.175015e+001
1.666408e+003,1.804206e+001
1.668336e+003,1.963538e+001
1.670265e+003,1.315311e+001
1.672193e+003,8.731206e+000
1.674121e+003,9.259319e+000
1.676050e+003,1.053263e+001
1.677978e+003,1.048087e+001
1.679907e+003,9.548728e+000
1.681835e+003,8.319815e+000
1.683764e+003,6.289507e+000
1.685692e+003,6.648773e+000
1.687621e+003,1.316401e+001
1.689549e+003,1.620524e+001
1.691478e+003,1.059425e+001
1.693406e+003,4.161296e+000
1.695335e+003,2.622290e+000
1.697263e+003,4.714315e+000
1.699192e+003,6.373197e+000
1.701120e+003,7.459671e+000
1.703048e+003,8.655940e+000
1.704977e+003,1.047937e+001
1.706905e+003,1.173962e+001
1.708834e+003,1.171673e+001
1.710762e+003,1.137210e+001
1.712691e+003,1.163729e+001
1.714619e+003,1.233833e+001
1.716548e+003,1.246782e+001
1.718476e+003,1.172775e+001
1.720405e+003,1.144599e+001
1.722333e+003,1.249090e+001
1.724262e+003,1.298965e+001
1.726190e+003,1.192488e+001
1.728119e+003,1.044029e+001
1.730047e+003,9.778872e+000
1.731975e+003,9.758178e+000
1.733904e+003,8.693293e+000
1.735832e+003,5.633389e+000
1.737761e+003,4.871239e+000
1.739689e+003,9.657635e+000
1.741618e+003,1.296201e+001
1.743546e+003,1.018980e+001
1.745475e+003,6.703945e+000
1.747403e+003,9.056695e+000
1.749332e+003,1.602762e+001
1.751260e+003,1.796645e+001
1.753189e+003,1.358533e+001
1.755117e+003,9.375979e+000
1.757046e+003,3.887503e+000
1.758974e+003,2.447021e+000
1.760902e+003,1.205715e+001
1.762831e+003,2.214938e+001
1.764759e+003,2.138818e+001
1.766688e+003,1.260450e+001
1.768616e+003,9.216378e+000
1.770545e+003,1.263658e+001
1.772473e+003,1.396902e+001
1.774402e+003,1.035886e+001
1.776330e+003,7.267857e+000
1.778259e+003,7.064939e+000
1.780187e+003,8.035036e+000
1.782116e+003,9.120265e+000
1.784044e+003,1.025136e+001
1.785973e+003,1.112183e+001
1.787901e+003,1.168183e+001
1.789829e+003,1.287961e+001
1.791758e+003,1.552921e+001
1.793686e+003,1.719176e+001
1.795615e+003,1.659106e+001
1.797543e+003,1.518434e+001
1.799472e+003,1.309955e+001
1.801400e+003,1.129290e+001
1.803329e+003,1.254338e+001
1.805257e+003,1.668464e+001
1.807186e+003,1.692946e+001
1.809114e+003,1.038336e+001
1.811043e+003,6.699243e+000
1.812971e+003,1.214152e+001
1.814900e+003,1.685485e+001
1.816828e+003,1.347261e+001
1.818756e+003,7.224368e+000
1.820685e+003,5.816104e+000
1.822613e+003,8.540988e+000
1.824542e+003,9.826653e+000
1.826470e+003,8.893710e+000
1.828399e+003,8.772429e+000
1.830327e+003,1.120153e+001
1.832256e+003,1.285071e+001
1.834184e+003,1.117548e+001
1.836113e+003,9.340541e+000
1.838041e+003,1.197168e+001
1.839970e+003,1.700521e+001
1.841898e+003,1.603823e+001
1.843827e+003,5.996308e+000
1.845755e+003,1.327230e+000
1.847684e+003,6.547307e+000
1.849612e+003,1.048321e+001
1.851541e+003,9.743083e+000
1.853469e+003,8.683947e+000
1.855397e+003,1.056576e+001
1.857326e+003,1.356029e+001
1.859254e+003,1.464762e+001
1.861183e+003,1.380097e+001
1.863111e+003,1.236475e+001
1.865040e+003,9.635408e+000
1.866968e+003,7.888733e+000
1.868897e+003,8.017741e+000
1.870825e+003,8.156433e+000
1.872754e+003,6.784456e+000
1.874682e+003,6.099468e+000
1.876611e+003,8.809634e+000
1.878539e+003,1.352608e+001
1.880468e+003,1.616188e+001
1.882396e+003,1.662543e+001
1.884324e+003,1.665569e+001
1.886253e+003,1.649012e+001
1.888181e+003,1.546276e+001
1.890110e+003,1.236567e+001
1.892038e+003,9.863953e+000
1.893967e+003,1.100602e+001
1.895895e+003,1.205777e+001
1.897824e+003,7.234846e+000
1.899752e+003,-6.854452e-001
1.901681e+003,-2.118958e+000
1.903609e+003,3.539649e+000
1.905538e+003,8.584723e+000
1.907466e+003,1.277281e+001
1.909395e+003,1.454939e+001
1.911323e+003,1.134702e+001
1.913251e+003,8.056365e+000
1.915180e+003,7.261715e+000
1.917108e+003,7.936686e+000
1.919037e+003,8.937724e+000
1.920965e+003,1.025120e+001
1.922894e+003,1.207126e+001
1.924822e+003,1.505207e+001
1.926751e+003,1.603488e+001
1.928679e+003,1.297945e+001
1.930608e+003,1.081956e+001
1.932536e+003,1.084596e+001
1.934465e+003,1.155177e+001
1.936393e+003,1.286638e+001
1.938322e+003,1.384073e+001
1.940250e+003,1.247629e+001
1.942178e+003,9.328477e+000
1.944107e+003,8.593489e+000
1.946035e+003,1.088743e+001
1.947964e+003,1.312375e+001
1.949892e+003,1.556224e+001
1.951821e+003,1.709709e+001
1.953749e+003,1.727325e+001
1.955678e+003,1.675276e+001
1.957606e+003,1.615507e+001
1.959535e+003,1.479430e+001
1.961463e+003,1.062470e+001
1.963392e+003,5.183446e+000
1.965320e+003,4.081941e+000
1.967249e+003,7.519235e+000
1.969177e+003,9.077775e+000
1.971105e+003,7.161605e+000
1.973034e+003,6.443490e+000
1.974962e+003,9.270419e+000
1.976891e+003,1.189518e+001
1.978819e+003,1.278801e+001
1.980748e+003,1.257622e+001
1.982676e+003,1.087053e+001
1.984605e+003,8.765054e+000
1.986533e+003,9.666749e+000
1.988462e+003,1.391361e+001
1.990390e+003,1.492764e+001
1.992319e+003,1.050502e+001
1.994247e+003,6.702308e+000
1.996176e+003,1.392332e+000
1.998104e+003,-1.716044e-001
2.000032e+003,6.867709e+000
2.001961e+003,1.424548e+001
2.003889e+003,1.728692e+001
2.005818e+003,1.695171e+001
2.007746e+003,1.319403e+001
2.009675e+003,6.950791e+000
2.011603e+003,4.478706e+000
2.013532e+003,6.190852e+000
2.015460e+003,6.864613e+000
2.017389e+003,5.414377e+000
2.019317e+003,4.780362e+000
2.021246e+003,5.650877e+000
2.023174e+003,7.590880e+000
2.025103e+003,1.171826e+001
2.027031e+003,1.555312e+001
2.028959e+003,1.695686e+001
2.030888e+003,1.657353e+001
2.032816e+003,1.545670e+001
2.034745e+003,1.363032e+001
2.036673e+003,1.133660e+001
2.038602e+003,7.919409e+000
2.040530e+003,5.969055e+000
2.042459e+003,7.543412e+000
2.044387e+003,7.486694e+000
2.046316e+003,7.184117e-001
2.048244e+003,-2.427864e+000
2.050173e+003,7.738045e+000
2.052101e+003,1.909630e+001
2.054030e+003,1.812455e+001
2.055958e+003,1.041866e+001
2.057886e+003,9.523062e+000
2.059815e+003,1.464112e+001
2.061743e+003,1.734934e+001
2.063672e+003,1.714326e+001
2.065600e+003,1.573779e+001
2.067529e+003,1.270302e+001
2.069457e+003,1.037530e+001
2.071386e+003,1.008004e+001
2.073314e+003,9.767613e+000
2.075243e+003,7.274666e+000
2.077171e+003,5.441542e+000
2.079100e+003,7.935007e+000
2.081028e+003,1.240557e+001
2.082957e+003,1.432710e+001
2.084885e+003,1.383718e+001
2.086813e+003,1.277936e+001
2.088742e+003,1.148461e+001
2.090670e+003,8.273771e+000
2.092599e+003,-7.160543e-001
2.094527e+003,-3.702565e+000
2.096456e+003,6.692424e+000
2.098384e+003,1.491081e+001
2.100313e+003,1.307664e+001
2.102241e+003,9.851629e+000
2.104170e+003,1.104587e+001
2.106098e+003,1.400873e+001
2.108027e+003,1.606190e+001
2.109955e+003,1.696706e+001
2.111884e+003,1.572054e+001
2.113812e+003,1.231822e+001
2.115740e+003,8.578038e+000
2.117669e+003,3.554812e+000
2.119597e+003,1.522535e+000
2.121526e+003,5.172176e+000
2.123454e+003,8.480096e+000
2.125383e+003,1.067252e+001
2.127311e+003,1.163531e+001
2.129240e+003,9.825387e+000
2.131168e+003,8.183097e+000
2.133097e+003,9.804502e+000
2.135025e+003,1.316242e+001
2.136954e+003,1.629224e+001
2.138882e+003,1.875973e+001
2.140811e+003,1.766934e+001
2.142739e+003,1.300053e+001
2.144667e+003,1.049297e+001
2.146596e+003,1.112896e+001
2.148524e+003,1.160248e+001
2.150453e+003,1.123180e+001
2.152381e+003,1.071795e+001
2.154310e+003,1.031094e+001
2.156238e+003,9.762658e+000
2.158167e+003,9.146772e+000
2.160095e+003,8.142706e+000
2.162024e+003,5.225722e+000
2.163952e+003,2.430587e+000
2.165881e+003,4.105124e+000
2.167809e+003,9.283340e+000
2.169738e+003,1.267719e+001
2.171666e+003,1.429236e+001
2.173594e+003,1.308965e+001
2.175523e+003,8.096751e+000
2.177451e+003,6.296235e+000
2.179380e+003,1.036687e+001
2.181308e+003,1.321171e+001
2.183237e+003,1.075218e+001
2.185165e+003,9.600647e+000
2.187094e+003,1.458076e+001
2.189022e+003,1.963681e+001
2.190951e+003,2.014206e+001
2.192879e+003,1.844752e+001
2.194808e+003,1.781372e+001
2.196736e+003,1.731464e+001
2.198665e+003,1.370301e+001
2.200593e+003,7.128417e+000
2.202521e+003,3.148199e+000
2.204450e+003,1.826685e+000
2.206378e+003,3.052711e+000
2.208307e+003,7.796457e+000
2.210235e+003,1.030202e+001
2.212164e+003,8.272963e+000
2.214092e+003,6.652400e+000
2.216021e+003,8.191369e+000
2.217949e+003,9.031586e+000
2.219878e+003,5.307609e+000
2.221806e+003,2.476173e+000
2.223735e+003,6.044971e+000
2.225663e+003,1.207111e+001
2.227592e+003,1.578394e+001
2.229520e+003,1.760307e+001
2.231448e+003,1.888882e+001
2.233377e+003,1.950500e+001
2.235305e+003,1.729809e+001
2.237234e+003,1.215805e+001
2.239162e+003,9.462411e+000
2.241091e+003,1.006523e+001
2.243019e+003,1.085214e+001
2.244948e+003,1.127216e+001
2.246876e+003,1.184871e+001
2.248805e+003,1.370060e+001
2.250733e+003,1.432080e+001
2.252662e+003,1.082751e+001
2.254590e+003,8.131664e+000
2.256519e+003,1.171739e+001
2.258447e+003,1.529286e+001
2.260375e+003,1.006738e+001
2.262304e+003,2.180377e+000
2.264232e+003,3.502427e+000
2.266161e+003,1.064867e+001
2.268089e+003,1.306308e+001
2.270018e+003,1.118439e+001
2.271946e+003,1.024463e+001
2.273875e+003,1.064113e+001
2.275803e+003,1.047429e+001
2.277732e+003,9.317374e+000
2.279660e+003,8.277351e+000
2.281589e+003,7.057507e+000
2.283517e+003,6.581979e+000
2.285446e+003,6.696793e+000
2.287374e+003,8.016906e+000
2.289302e+003,1.330167e+001
2.291231e+003,1.661987e+001
2.293159e+003,1.268227e+001
2.295088e+003,7.568013e+000
2.297016e+003,5.077517e+000
2.298945e+003,5.616877e+000
2.300873e+003,1.239557e+001
2.302802e+003,2.170673e+001
2.304730e+003,2.368682e+001
2.306659e+003,1.928733e+001
2.308587e+003,1.617947e+001
2.310516e+003,1.459823e+001
2.312444e+003,1.200227e+001
2.314373e+003,7.660302e+000
2.316301e+003,7.001359e+000
2.318229e+003,1.151046e+001
2.320158e+003,1.539023e+001
2.322086e+003,1.787288e+001
2.324015e+003,1.877131e+001
2.325943e+003,1.677645e+001
2.327872e+003,1.500086e+001
2.329800e+003,1.492842e+001
2.331729e+003,1.499428e+001
2.333657e+003,1.437901e+001
2.335586e+003,1.340942e+001
2.337514e+003,1.215157e+001
2.339443e+003,1.087128e+001
2.341371e+003,1.004865e+001
2.343300e+003,9.370270e+000
2.345228e+003,7.620614e+000
2.347156e+003,5.599990e+000
2.349085e+003,6.345599e+000
2.351013e+003,9.598639e+000
2.352942e+003,1.099797e+001
2.354870e+003,9.887763e+000
2.356799e+003,1.147078e+001
2.358727e+003,1.851680e+001
2.360656e+003,1.984972e+001
2.362584e+003,1.222827e+001
2.364513e+003,7.904473e+000
2.366441e+003,1.069070e+001
2.368370e+003,1.145194e+001
2.370298e+003,5.912849e+000
2.372227e+003,1.160411e+000
2.374155e+003,2.338873e-001
2.376083e+003,6.379954e-001
2.378012e+003,9.132770e-001
2.379940e+003,2.268832e+000
2.381869e+003,7.320244e+000
2.383797e+003,1.214631e+001
2.385726e+003,1.225802e+001
2.387654e+003,1.009222e+001
2.389583e+003,6.912753e+000
2.391511e+003,5.131373e+000
2.393440e+003,1.259880e+001
2.395368e+003,2.531504e+001
2.397297e+003,2.814567e+001
2.399225e+003,2.189817e+001
2.401154e+003,1.786613e+001
2.403082e+003,1.633983e+001
2.405010e+003,1.485516e+001
2.406939e+003,1.354031e+001
2.408867e+003,1.124792e+001
2.410796e+003,7.242115e+000
2.412724e+003,5.968642e+000
2.414653e+003,8.895014e+000
2.416581e+003,1.173543e+001
2.418510e+003,1.337066e+001
2.420438e+003,1.500979e+001
2.422367e+003,1.862721e+001
2.424295e+003,1.978755e+001
2.426224e+003,1.527482e+001
2.428152e+003,1.031416e+001
2.430081e+003,6.019320e+000
2.432009e+003,3.633024e+000
2.433938e+003,5.250414e+000
2.435866e+003,7.381418e+000
2.437794e+003,6.631600e+000
2.439723e+003,5.506534e+000
2.441651e+003,7.513709e+000
2.443580e+003,1.036748e+001
2.445508e+003,9.702835e+000
2.447437e+003,7.581450e+000
2.449365e+003,1.015280e+001
2.451294e+003,1.511794e+001
2.453222e+003,1.236448e+001
2.455151e+003,4.084812e+000
2.457079e+003,6.385861e-001
2.459008e+003,1.920629e+000
2.460936e+003,3.457313e+000
2.462865e+003,4.986993e+000
2.464793e+003,8.097752e+000
2.466721e+003,1.440781e+001
2.468650e+003,1.690595e+001
2.470578e+003,1.470595e+001
2.472507e+003,1.181574e+001
2.474435e+003,7.804598e+000
2.476364e+003,6.909173e+000
2.478292e+003,1.140647e+001
2.480221e+003,1.468039e+001
2.482149e+003,1.513057e+001
2.484078e+003,1.402252e+001
2.486006e+003,9.627276e+000
2.487935e+003,6.807045e+000
2.489863e+003,7.379108e+000
2.491792e+003,9.368640e+000
2.493720e+003,1.298373e+001
2.495648e+003,1.641389e+001
2.497577e+003,2.006046e+001
2.499505e+003,2.142188e+001
2.501434e+003,1.725818e+001
2.503362e+003,1.196130e+001
2.505291e+003,8.241906e+000
2.507219e+003,6.199946e+000
2.509148e+003,7.402362e+000
2.511076e+003,9.072008e+000
2.513005e+003,6.554168e+000
2.514933e+003,3.218513e+000
2.516862e+003,4.879735e+000
2.518790e+003,8.622680e+000
2.520719e+003,8.271377e+000
2.522647e+003,5.909120e+000
2.524575e+003,7.257288e+000
2.526504e+003,1.149246e+001
2.528432e+003,1.689312e+001
2.530361e+003,2.222079e+001
2.532289e+003,1.781343e+001
2.534218e+003,6.049195e+000
2.536146e+003,4.169543e+000
2.538075e+003,1.247451e+001
2.540003e+003,1.505532e+001
2.541932e+003,1.081040e+001
2.543860e+003,9.417174e+000
2.545789e+003,1.156180e+001
2.547717e+003,1.184048e+001
2.549646e+003,9.853568e+000
2.551574e+003,8.957438e+000
2.553502e+003,9.880234e+000
2.555431e+003,8.710222e+000
2.557359e+003,3.427825e+000
2.559288e+003,3.634810e-001
2.561216e+003,1.411165e+000
2.563145e+003,2.116957e+000
2.565073e+003,1.586307e+000
2.567002e+003,2.718487e+000
2.568930e+003,6.754620e+000
2.570859e+003,1.011131e+001
2.572787e+003,1.201640e+001
2.574716e+003,1.284122e+001
2.576644e+003,1.227002e+001
2.578573e+003,1.130580e+001
2.580501e+003,9.099901e+000
2.582429e+003,8.350056e+000
2.584358e+003,1.063151e+001
2.586287e+003,1.279903e+001
2.588215e+003,1.409944e+001
2.590144e+003,1.425263e+001
2.592072e+003,1.218495e+001
2.594000e+003,1.031139e+001
2.595929e+003,9.049040e+000
2.597857e+003,9.333537e+000
2.599786e+003,1.348173e+001
2.601714e+003,1.690649e+001
2.603643e+003,1.650982e+001
2.605571e+003,1.544059e+001
2.607500e+003,1.627141e+001
2.609428e+003,1.662170e+001
2.611357e+003,1.394485e+001
2.613285e+003,1.099364e+001
2.615214e+003,1.016397e+001
2.617142e+003,9.919606e+000
2.619071e+003,8.344827e+000
2.620999e+003,7.400441e+000
2.622927e+003,9.804437e+000
2.624856e+003,1.259933e+001
2.626784e+003,1.378590e+001
2.628713e+003,1.273385e+001
2.630641e+003,5.436970e+000
2.632570e+003,-1.396775e+000
2.634498e+003,2.502269e+000
2.636427e+003,9.785546e+000
2.638355e+003,1.176279e+001
2.640284e+003,1.132901e+001
2.642212e+003,1.231966e+001
2.644141e+003,1.323154e+001
2.646069e+003,1.069251e+001
2.647998e+003,7.412711e+000
2.649926e+003,9.124001e+000
2.651854e+003,1.221942e+001
2.653783e+003,9.028102e+000
2.655711e+003,4.305003e+000
2.657640e+003,6.636930e+000
2.659568e+003,1.218290e+001
2.661497e+003,1.365752e+001
2.663425e+003,1.312257e+001
2.665354e+003,1.528890e+001
2.667282e+003,1.831812e+001
2.669211e+003,1.895098e+001
2.671139e+003,1.707286e+001
2.673068e+003,1.010385e+001
2.674996e+003,1.954891e+000
2.676925e+003,2.549022e+000
2.678853e+003,7.966157e+000
2.680781e+003,9.022573e+000
2.682710e+003,7.311514e+000
2.684638e+003,5.934065e+000
2.686567e+003,5.238442e+000
2.688495e+003,6.897038e+000
2.690424e+003,9.249742e+000
2.692352e+003,7.620114e+000
2.694281e+003,3.816099e+000
2.696209e+003,2.012226e+000
2.698138e+003,2.009592e+000
2.700066e+003,4.275903e+000
2.701995e+003,7.471909e+000
2.703923e+003,7.855980e+000
2.705852e+003,7.217497e+000
2.707780e+003,1.167037e+001
2.709708e+003,1.769034e+001
2.711637e+003,1.426099e+001
2.713565e+003,6.514798e+000
2.715494e+003,7.183264e+000
2.717422e+003,1.250596e+001
2.719351e+003,1.604035e+001
2.721279e+003,1.769159e+001
2.723208e+003,1.623706e+001
2.725136e+003,1.333100e+001
2.727065e+003,1.329642e+001
2.728993e+003,1.400695e+001
2.730922e+003,9.867578e+000
2.732850e+003,4.348040e+000
2.734779e+003,2.629164e+000
2.736707e+003,4.456417e+000
2.738635e+003,1.297916e+001
2.740564e+003,2.200054e+001
2.742492e+003,1.751152e+001
2.744421e+003,8.503375e+000
2.746349e+003,8.783834e+000
2.748278e+003,1.335407e+001
2.750206e+003,1.630554e+001
2.752135e+003,1.776191e+001
2.754063e+003,1.705890e+001
2.755992e+003,1.573807e+001
2.757920e+003,1.655439e+001
2.759849e+003,1.725297e+001
2.761777e+003,1.567349e+001
2.763706e+003,1.224173e+001
2.765634e+003,5.446071e+000
2.767563e+003,-8.222620e-001
2.769491e+003,-3.837582e+000
2.771419e+003,-2.468704e+000
2.773348e+003,8.986012e+000
2.775276e+003,1.948944e+001
2.777205e+003,1.847115e+001
2.779133e+003,1.324921e+001
2.781062e+003,6.728096e+000
2.782990e+003,2.736011e+000
2.784919e+003,7.151011e+000
2.786847e+003,1.137608e+001
2.788776e+003,8.215428e+000
2.790704e+003,5.556685e+000
2.792633e+003,1.057224e+001
2.794561e+003,1.441636e+001
2.796490e+003,9.851062e+000
2.798418e+003,6.144727e+000
2.800346e+003,8.309256e+000
2.802275e+003,1.040022e+001
2.804203e+003,8.874659e+000
2.806132e+003,7.720759e+000
2.808060e+003,8.913485e+000
2.809989e+003,1.011619e+001
2.811917e+003,1.004922e+001
2.813846e+003,1.137855e+001
2.815774e+003,1.664836e+001
2.817703e+003,1.911170e+001
2.819631e+003,1.463364e+001
2.821560e+003,1.078831e+001
2.823488e+003,9.259697e+000
2.825417e+003,7.158854e+000
2.827345e+003,3.361482e+000
2.829273e+003,2.160006e+000
2.831202e+003,5.430150e+000
2.833130e+003,7.913002e+000
2.835059e+003,9.133331e+000
2.836987e+003,8.624831e+000
2.838916e+003,5.774624e+000
2.840844e+003,5.939419e+000
2.842773e+003,9.893958e+000
2.844701e+003,1.289991e+001
2.846630e+003,1.484889e+001
2.848558e+003,1.299888e+001
2.850487e+003,7.019556e+000
2.852415e+003,5.827767e+000
2.854344e+003,8.906703e+000
2.856272e+003,1.001556e+001
2.858200e+003,9.275812e+000
2.860129e+003,1.023113e+001
2.862057e+003,1.209503e+001
2.863986e+003,8.765273e+000
2.865914e+003,2.854419e+000
2.867843e+003,4.325288e+000
2.869771e+003,9.404797e+000
2.871700e+003,8.698861e+000
2.873628e+003,5.813503e+000
2.875557e+003,8.943522e+000
2.877485e+003,1.364236e+001
2.879414e+003,1.196767e+001
2.881342e+003,8.982333e+000
2.883271e+003,1.166354e+001
2.885199e+003,1.436481e+001
2.887127e+003,9.491354e+000
2.889056e+003,4.461633e+000
2.890984e+003,6.580744e+000
2.892913e+003,8.810457e+000
2.894841e+003,5.878789e+000
2.896770e+003,3.107326e+000
2.898698e+003,3.022208e+000
2.900627e+003,4.472581e+000
2.902555e+003,8.927036e+000
2.904484e+003,1.060100e+001
2.906412e+003,5.853799e+000
2.908341e+003,2.623069e+000
2.910269e+003,4.368817e+000
2.912198e+003,5.467972e+000
2.914126e+003,4.095316e+000
2.916054e+003,7.202256e+000
2.917983e+003,1.712573e+001
2.919911e+003,2.084716e+001
2.921840e+003,1.449914e+001
2.923768e+003,1.065550e+001
2.925697e+003,9.795355e+000
2.927625e+003,7.129725e+000
2.929554e+003,2.977080e+000
2.931482e+003,3.088019e+000
2.933411e+003,6.627301e+000
2.935339e+003,5.209275e+000
2.937268e+003,7.037705e-001
2.939196e+003,1.767326e+000
2.941125e+003,6.017996e+000
2.943053e+003,7.881612e+000
2.944981e+003,8.872555e+000
2.946910e+003,1.323175e+001
2.948838e+003,1.647135e+001
2.950767e+003,9.290922e+000
2.952695e+003,2.182378e+000
2.954624e+003,6.257797e+000
2.956552e+003,1.120134e+001
2.958481e+003,8.440815e+000
2.960409e+003,5.808216e+000
2.962338e+003,8.798761e+000
2.964266e+003,1.067417e+001
2.966195e+003,7.541929e+000
2.968123e+003,6.695168e+000
2.970052e+003,1.386413e+001
2.971980e+003,1.711524e+001
2.973908e+003,1.401754e+001
2.975837e+003,1.021886e+001
2.977765e+003,5.889775e+000
2.979694e+003,5.161990e+000
2.981622e+003,9.928264e+000
2.983551e+003,9.581501e+000
2.985479e+003,4.066724e+000
2.987408e+003,5.659559e+000
2.989336e+003,1.279735e+001
2.991265e+003,1.629614e+001
2.993193e+003,1.679433e+001
2.995122e+003,1.625646e+001
2.997050e+003,1.495199e+001
2.998979e+003,1.344068e+001
3.000907e+003,1.151118e+001
3.002835e+003,7.582245e+000
3.004764e+003,4.680874e+000
3.006692e+003,6.857480e+000
3.008621e+003,9.930353e+000
3.010549e+003,1.301407e+001
3.012478e+003,1.288600e+001
3.014406e+003,3.920869e+000
3.016335e+003,-1.835989e+000
3.018263e+003,1.218600e+000
3.020192e+003,5.642331e+000
3.022120e+003,1.169373e+001
3.024049e+003,1.276145e+001
3.025977e+003,5.137444e+000
3.027906e+003,3.904770e+000
3.029834e+003,1.147959e+001
3.031762e+003,7.933458e+000
3.033691e+003,-4.759073e+000
3.035619e+003,-2.414463e+000
3.037548e+003,1.072806e+001
3.039476e+003,1.362679e+001
3.041405e+003,1.018352e+001
3.043333e+003,9.070104e+000
3.045262e+003,9.311045e+000
3.047190e+003,1.001563e+001
3.049119e+003,1.071529e+001
3.051047e+003,1.120076e+001
3.052976e+003,1.106080e+001
3.054904e+003,9.701888e+000
3.056833e+003,8.351176e+000
3.058761e+003,6.275187e+000
3.060689e+003,6.833026e+000
3.062618e+003,1.373961e+001
3.064546e+003,1.563219e+001
3.066475e+003,9.675103e+000
3.068403e+003,9.543272e+000
3.070332e+003,1.988762e+001
3.072260e+003,1.830740e+001
3.074189e+003,4.891297e+000
3.076117e+003,2.662940e+000
3.078046e+003,8.249676e+000
3.079974e+003,5.595461e+000
3.081903e+003,-2.916982e-002
3.083831e+003,5.134508e+000
3.085760e+003,1.363685e+001
3.087688e+003,1.656808e+001
3.089616e+003,1.632810e+001
3.091545e+003,1.303204e+001
3.093473e+003,9.895435e+000
3.095402e+003,7.100545e+000
3.097330e+003,8.482966e+000
3.099259e+003,1.893347e+001
3.101187e+003,2.303297e+001
3.103116e+003,1.173989e+001
3.105044e+003,3.675653e+000
3.106973e+003,-9.490145e-001
3.108901e+003,4.018397e+000
3.110830e+003,1.786496e+001
3.112758e+003,2.123238e+001
3.114687e+003,1.625172e+001
3.116615e+003,1.336655e+001
3.118543e+003,1.186877e+001
3.120472e+003,1.129905e+001
3.122400e+003,1.000254e+001
3.124329e+003,3.647624e+000
3.126257e+003,-1.004795e+000
3.128186e+003,2.344449e+000
3.130114e+003,6.425577e+000
3.132043e+003,8.781504e+000
3.133971e+003,9.541933e+000
3.135900e+003,7.377315e+000
3.137828e+003,7.379388e+000
3.139757e+003,1.029628e+001
3.141685e+003,1.292370e+001
3.143614e+003,1.499614e+001
3.145542e+003,1.441660e+001
3.147470e+003,1.178640e+001
3.149399e+003,1.122884e+001
3.151327e+003,1.178371e+001
3.153256e+003,1.105119e+001
3.155184e+003,1.065812e+001
3.157113e+003,1.443805e+001
3.159041e+003,1.698889e+001
3.160970e+003,1.449593e+001
3.162898e+003,1.003650e+001
3.164827e+003,1.257990e+000
3.166755e+003,-1.382960e+000
3.168684e+003,5.339004e+000
3.170612e+003,1.046514e+001
3.172541e+003,1.241743e+001
3.174469e+003,1.242083e+001
3.176397e+003,1.059670e+001
3.178326e+003,8.098750e+000
3.180254e+003,6.082574e+000
3.182183e+003,8.975855e+000
3.184111e+003,1.343991e+001
3.186040e+003,1.483980e+001
3.187968e+003,1.407642e+001
3.189897e+003,1.027875e+001
3.191825e+003,7.679957e+000
3.193754e+003,9.634277e+000
3.195682e+003,1.118036e+001
3.197611e+003,1.117584e+001
3.199539e+003,1.098840e+001
3.201468e+003,1.081208e+001
3.203396e+003,1.029332e+001
3.205324e+003,9.431926e+000
3.207253e+003,1.070380e+001
3.209181e+003,1.310180e+001
3.211110e+003,1.389316e+001
3.213038e+003,1.345014e+001
3.214967e+003,1.105609e+001
3.216895e+003,9.506233e+000
3.218824e+003,1.225091e+001
3.220752e+003,1.414948e+001
3.222681e+003,1.109167e+001
3.224609e+003,1.010044e+001
3.226538e+003,1.359118e+001
3.228466e+003,1.257927e+001
3.230395e+003,5.260631e+000
3.232323e+003,2.653283e+000
3.234251e+003,4.357439e+000
3.236180e+003,4.046266e+000
3.238108e+003,2.590898e+000
3.240037e+003,8.922033e-001
3.241965e+003,3.747414e-001
3.243894e+003,4.113029e+000
3.245822e+003,7.560678e+000
3.247751e+003,7.874911e+000
3.249679e+003,8.033684e+000
3.251608e+003,1.066033e+001
3.253536e+003,8.918289e+000
3.255465e+003,1.550026e+000
3.257393e+003,-6.873860e-002
3.259322e+003,4.649279e+000
3.261250e+003,1.112002e+001
3.263178e+003,1.719153e+001
3.265107e+003,1.336256e+001
3.267035e+003,8.114427e+000
3.268964e+003,1.407035e+001
3.270892e+003,1.948229e+001
3.272821e+003,1.594853e+001
3.274749e+003,1.023903e+001
3.276678e+003,1.457557e+000
3.278606e+003,1.497786e-001
3.280535e+003,9.913768e+000
3.282463e+003,1.470036e+001
3.284392e+003,1.429886e+001
3.286320e+003,1.015131e+001
3.288249e+003,4.284421e+000
3.290177e+003,9.934788e-001
3.292105e+003,-1.149217e-001
3.294034e+003,1.197940e+000
3.295962e+003,2.978160e+000
3.297891e+003,3.602240e+000
3.299819e+003,5.430504e+000
3.301748e+003,9.522917e+000
3.303676e+003,1.212990e+001
3.305605e+003,1.238517e+001
3.307533e+003,1.288744e+001
3.309462e+003,1.334815e+001
3.311390e+003,1.085087e+001
3.313319e+003,7.932249e+000
3.315247e+003,1.012920e+001
3.317176e+003,1.276990e+001
3.319104e+003,1.157022e+001
3.321032e+003,9.854532e+000
3.322961e+003,8.440764e+000
3.324889e+003,8.328327e+000
3.326818e+003,9.859791e+000
3.328746e+003,1.090886e+001
3.330675e+003,1.128274e+001
3.332603e+003,1.094875e+001
3.334532e+003,9.981159e+000
3.336460e+003,8.038020e+000
3.338389e+003,6.272385e+000
3.340317e+003,5.405632e+000
3.342246e+003,6.100981e+000
3.344174e+003,1.035838e+001
3.346103e+003,1.202240e+001
3.348031e+003,8.506661e+000
3.349959e+003,8.499604e+000
3.351888e+003,1.301474e+001
3.353816e+003,1.295008e+001
3.355745e+003,1.004911e+001
3.357673e+003,9.722537e+000
3.359602e+003,1.025318e+001
3.361530e+003,9.134301e+000
3.363459e+003,8.166913e+000
3.365387e+003,8.758603e+000
3.367316e+003,8.934118e+000
3.369244e+003,7.786139e+000
3.371173e+003,7.768914e+000
3.373101e+003,9.022115e+000
3.375030e+003,1.140440e+001
3.376958e+003,1.359340e+001
3.378886e+003,9.693042e+000
3.380815e+003,4.188482e+000
3.382743e+003,6.681944e-001
3.384672e+003,5.170906e-001
3.386600e+003,8.255473e+000
3.388529e+003,1.136783e+001
3.390457e+003,5.879714e+000
3.392386e+003,5.191972e+000
3.394314e+003,1.041166e+001
3.396243e+003,9.242648e+000
3.398171e+003,5.002370e+000
3.400100e+003,6.590777e+000
3.402028e+003,9.203628e+000
3.403957e+003,7.654674e+000
3.405885e+003,4.812484e+000
3.407813e+003,-5.298595e-001
3.409742e+003,-1.807307e-001
3.411670e+003,8.572299e+000
3.413599e+003,1.391928e+001
3.415527e+003,1.546717e+001
3.417456e+003,1.335703e+001
3.419384e+003,1.007077e+001
3.421313e+003,1.136925e+001
3.423241e+003,1.232984e+001
3.425170e+003,7.154332e+000
3.427098e+003,5.071181e+000
3.429027e+003,1.001047e+001
3.430955e+003,1.271387e+001
3.432884e+003,1.206954e+001
3.434812e+003,1.078959e+001
3.436740e+003,9.552874e+000
3.438669e+003,1.221709e+001
3.440597e+003,1.426613e+001
3.442526e+003,8.928238e+000
3.444454e+003,4.302995e+000
3.446383e+003,3.899102e+000
3.448311e+003,5.079321e+000
3.450240e+003,7.595464e+000
3.452168e+003,1.150571e+001
3.454097e+003,1.584439e+001
3.456025e+003,1.256708e+001
3.457954e+003,6.705260e+000
3.459882e+003,5.066227e+000
3.461811e+003,5.610035e+000
3.463739e+003,8.272935e+000
3.465667e+003,9.277308e+000
3.467596e+003,6.372452e+000
3.469524e+003,4.626725e+000
3.471453e+003,4.007577e+000
3.473381e+003,2.914059e+000
3.475310e+003,2.766152e+000
3.477238e+003,9.098348e+000
3.479167e+003,1.428459e+001
3.481095e+003,1.060349e+001
3.483024e+003,8.423800e+000
3.484952e+003,1.136705e+001
3.486881e+003,1.451169e+001
3.488809e+003,1.704029e+001
3.490738e+003,1.160475e+001
3.492666e+003,2.818014e+000
3.494594e+003,1.124723e+000
3.496523e+003,3.872941e+000
3.498451e+003,1.289752e+001
3.500380e+003,1.808299e+001
3.502308e+003,1.636512e+001
3.504237e+003,1.338251e+001
3.506165e+003,9.778343e+000
3.508094e+003,6.578835e+000
3.510022e+003,3.892463e+000
3.511951e+003,-2.194134e-001
3.513879e+003,-5.446867e-001
3.515808e+003,1.223711e+001
3.517736e+003,2.113571e+001
3.519665e+003,2.145899e+001
3.521593e+003,1.863187e+001
3.523521e+003,1.338627e+001
3.525450e+003,6.306316e+000
3.527378e+003,4.512065e-001
3.529307e+003,3.301149e+000
3.531235e+003,7.316469e+000
3.533164e+003,6.546780e+000
3.535092e+003,5.861902e+000
3.537021e+003,7.005754e+000
3.538949e+003,6.980621e+000
3.540878e+003,5.860584e+000
3.542806e+003,3.780104e+000
3.544735e+003,3.203362e+000
3.546663e+003,1.285477e+001
3.548592e+003,1.804551e+001
3.550520e+003,7.030102e+000
3.552448e+003,5.424424e-002
3.554377e+003,2.428042e+000
3.556305e+003,4.817730e+000
3.558234e+003,7.032367e+000
3.560162e+003,9.662786e+000
3.562091e+003,1.193455e+001
3.564019e+003,1.256982e+001
3.565948e+003,1.297941e+001
3.567876e+003,1.508645e+001
3.569805e+003,1.312199e+001
3.571733e+003,6.818177e+000
3.573662e+003,5.540660e+000
3.575590e+003,7.883719e+000
3.577519e+003,1.187565e+001
3.579447e+003,1.366969e+001
3.581376e+003,7.222645e+000
3.583304e+003,4.279147e+000
3.585233e+003,9.028298e+000
3.587161e+003,1.161432e+001
3.589090e+003,1.171547e+001
3.591018e+003,1.380964e+001
3.592947e+003,1.563679e+001
3.594875e+003,1.154813e+001
3.596803e+003,9.468905e+000
3.598732e+003,1.754417e+001
3.600660e+003,1.973741e+001
3.602589e+003,1.439586e+001
3.604517e+003,4.562004e+000
3.606446e+003,-5.008656e+000
3.608374e+003,3.162057e+000
3.610303e+003,1.370552e+001
3.612231e+003,1.581685e+001
3.614160e+003,1.087022e+001
3.616088e+003,-2.590926e+000
3.618017e+003,-1.520539e+000
3.619945e+003,1.199744e+001
3.621874e+003,9.795870e+000
3.623802e+003,1.951219e+000
3.625730e+003,-1.014806e+000
3.627659e+003,4.258493e-001
3.629587e+003,8.340635e+000
3.631516e+003,1.109347e+001
3.633444e+003,7.174495e+000
3.635373e+003,5.899342e+000
3.637301e+003,6.894578e+000
3.639230e+003,1.075567e+001
3.641158e+003,1.391680e+001
3.643087e+003,1.467831e+001
3.645015e+003,1.136068e+001
3.646944e+003,3.193335e+000
3.648872e+003,5.395337e+000
3.650801e+003,1.391993e+001
3.652729e+003,1.489708e+001
3.654657e+003,1.194708e+001
3.656586e+003,4.771985e+000
3.658514e+003,9.651045e-001
3.660443e+003,2.386862e+000
3.662371e+003,4.914703e+000
3.664300e+003,7.400668e+000
3.666228e+003,4.113878e+000
3.668157e+003,6.063834e-001
3.670085e+003,3.449362e+000
3.672014e+003,6.320572e+000
3.673942e+003,7.526986e+000
3.675871e+003,7.745243e+000
3.677799e+003,7.130082e+000
3.679728e+003,5.564074e+000
3.681656e+003,4.110953e+000
3.683584e+003,2.724518e+000
3.685513e+003,4.911979e+000
3.687441e+003,1.296795e+001
3.689370e+003,1.694268e+001
3.691298e+003,1.621182e+001
3.693227e+003,1.758501e+001
3.695155e+003,1.762569e+001
3.697084e+003,8.975457e+000
3.699012e+003,3.559649e+000
3.700941e+003,7.295690e+000
3.702869e+003,9.149188e+000
3.704798e+003,8.061551e+000
3.706726e+003,8.332546e+000
3.708655e+003,7.919363e+000
3.710583e+003,4.622406e-001
3.712511e+003,-1.356987e+000
3.714440e+003,1.015451e+001
3.716368e+003,1.843380e+001
3.718297e+003,2.146072e+001
3.720225e+003,1.728197e+001
3.722154e+003,1.048225e+001
3.724082e+003,6.930181e+000
3.726011e+003,4.928888e+000
3.727939e+003,4.062677e+000
3.729868e+003,2.997988e+000
3.731796e+003,1.949429e+000
3.733725e+003,4.941667e+000
3.735653e+003,8.732485e+000
3.737582e+003,9.941153e+000
3.739510e+003,8.329392e+000
3.741438e+003,2.529958e+000
3.743367e+003,-4.466972e-001
3.745295e+003,3.870804e-001
3.747224e+003,1.016985e+001
3.749152e+003,1.917164e+001
3.751081e+003,1.463286e+001
3.753009e+003,9.954237e+000
3.754938e+003,9.481383e+000
3.756866e+003,8.372933e+000
3.758795e+003,6.609546e+000
3.760723e+003,5.869163e+000
3.762652e+003,4.821160e+000
3.764580e+003,-4.448733e-001
3.766509e+003,7.221089e-001
3.768437e+003,1.192053e+001
3.770365e+003,1.529997e+001
3.772294e+003,1.262236e+001
3.774222e+003,1.143241e+001
3.776151e+003,9.053709e+000
3.778079e+003,5.544900e-001
3.780008e+003,-8.978754e-002
3.781936e+003,9.204462e+000
3.783865e+003,9.868420e+000
3.785793e+003,5.163156e+000
3.787722e+003,-4.161326e-001
3.789650e+003,-2.485912e+000
3.791579e+003,3.251154e+000
3.793507e+003,4.978309e+000
3.795436e+003,2.442741e+000
3.797364e+003,7.129372e+000
3.799292e+003,1.386815e+001
3.801221e+003,1.767834e+001
3.803149e+003,1.620290e+001
3.805078e+003,5.561899e+000
3.807006e+003,5.001652e+000
3.808935e+003,1.209226e+001
3.810863e+003,1.407675e+001
3.812792e+003,1.391211e+001
3.814720e+003,1.391082e+001
3.816649e+003,1.287751e+001
3.818577e+003,1.004612e+001
3.820506e+003,1.243451e+001
3.822434e+003,1.541632e+001
3.824363e+003,6.619267e+000
3.826291e+003,-5.940098e-002
3.828219e+003,2.802188e+000
3.830148e+003,8.164241e+000
3.832076e+003,1.430029e+001
3.834005e+003,9.299191e+000
3.835933e+003,2.598701e+000
3.837862e+003,5.676368e+000
3.839790e+003,9.665094e+000
3.841719e+003,1.257265e+001
3.843647e+003,1.115960e+001
3.845576e+003,7.088899e+000
3.847504e+003,3.036853e+000
3.849433e+003,2.726829e+000
3.851361e+003,1.304067e+001
3.853290e+003,1.627673e+001
3.855218e+003,1.176999e+001
3.857146e+003,1.163711e+001
3.859075e+003,1.301217e+001
3.861003e+003,1.164682e+001
3.862932e+003,1.020267e+001
3.864860e+003,1.000860e+001
3.866789e+003,7.440618e+000
3.868717e+003,3.261388e+000
3.870646e+003,-2.062938e+000
3.872574e+003,-3.263937e+000
3.874503e+003,4.992958e+000
3.876431e+003,8.406054e+000
3.878360e+003,5.917225e+000
3.880288e+003,1.077725e+001
3.882217e+003,1.630611e+001
3.884145e+003,1.325324e+001
3.886073e+003,8.736773e+000
3.888002e+003,3.798494e+000
3.889930e+003,6.388429e+000
3.891859e+003,1.247491e+001
3.893787e+003,1.105242e+001
3.895716e+003,8.735429e+000
3.897644e+003,8.763047e+000
3.899573e+003,1.070710e+001
3.901501e+003,1.377872e+001
3.903430e+003,1.072844e+001
3.905358e+003,7.321374e+000
3.907287e+003,1.118335e+001
3.909215e+003,1.062654e+001
3.911144e+003,4.019726e+000
3.913072e+003,7.544418e+000
3.915000e+003,1.393727e+001
3.916929e+003,7.701191e+000
3.918857e+003,3.134956e+000
3.920786e+003,6.741768e+000
3.922714e+003,1.094998e+001
3.924643e+003,1.400208e+001
3.926571e+003,1.048039e+001
3.928500e+003,5.760229e+000
3.930428e+003,2.330595e+000
3.932357e+003,1.931709e+000
3.934285e+003,4.172693e+000
3.936214e+003,6.593444e+000
3.938142e+003,7.341035e+000
3.940071e+003,2.010614e+000
3.941999e+003,1.236728e+000
3.943927e+003,7.933082e+000
3.945856e+003,8.544307e+000
3.947784e+003,7.437150e+000
3.949713e+003,1.130853e+001
3.951641e+003,1.630863e+001
3.953570e+003,2.181031e+001
3.955498e+003,1.765452e+001
3.957427e+003,8.223485e+000
3.959355e+003,4.261193e+000
3.961284e+003,2.804740e+000
3.963212e+003,2.328637e+000
3.965141e+003,6.014853e+000
3.967069e+003,1.239100e+001
3.968998e+003,1.523518e+001
3.970926e+003,1.564590e+001
3.972854e+003,1.442507e+001
3.974783e+003,1.014150e+001
3.976711e+003,4.080446e+000
3.978640e+003,8.063807e+000
3.980568e+003,1.331714e+001
3.982497e+003,1.059920e+001
3.984425e+003,1.001144e+001
3.986354e+003,1.357660e+001
3.988282e+003,1.262596e+001
3.990211e+003,9.659654e+000
3.992139e+003,8.062328e+000
3.994068e+003,4.461338e+000
3.995996e+003,-1.855282e+000
3.997925e+003,-2.230385e+000
3.999853e+003,1.633097e+000
4.001781e+003,9.173712e+000
4.003710e+003,1.291586e+001
4.005638e+003,1.038004e+001
4.007567e+003,7.744642e+000
4.009495e+003,5.745443e+000
4.011424e+003,4.715779e+000
4.013352e+003,5.875623e+000
4.015281e+003,1.151285e+001
4.017209e+003,1.479182e+001
4.019138e+003,1.500412e+001
4.021066e+003,1.025866e+001
4.022995e+003,3.728686e+000
4.024923e+003,-4.483085e+000
4.026852e+003,-1.541485e+000
4.028780e+003,8.407166e+000
4.030708e+003,8.652234e+000
4.032637e+003,7.777636e+000
4.034565e+003,1.081208e+001
4.036494e+003,1.134813e+001
4.038422e+003,9.232894e+000
4.040351e+003,4.526624e+000
4.042279e+003,1.101684e+000
4.044208e+003,1.313324e+000
4.046136e+003,5.000690e+000
4.048065e+003,1.074884e+001
4.049993e+003,1.464090e+001
4.051922e+003,1.399578e+001
4.053850e+003,4.835536e+000
4.055779e+003,5.589821e+000
4.057707e+003,1.435602e+001
4.059635e+003,1.409374e+001
4.061564e+003,9.246172e+000
4.063492e+003,1.397228e+000
4.065421e+003,-5.922926e+000
4.067349e+003,-1.063884e+001
4.069278e+003,8.501137e-002
4.071206e+003,1.247674e+001
4.073135e+003,1.779834e+001
4.075063e+003,1.917459e+001
4.076992e+003,1.627100e+001
4.078920e+003,4.220740e+000
4.080849e+003,-5.410683e+000
4.082777e+003,-5.864783e+000
4.084706e+003,4.109650e+000
4.086634e+003,1.797856e+001
4.088563e+003,5.545248e+000
4.090491e+003,-3.156414e+000
4.092419e+003,1.171186e+001
4.094348e+003,1.306129e+001
4.096276e+003,3.497597e+000
4.098205e+003,7.686621e+000
4.100133e+003,1.268107e+001
4.102062e+003,1.158496e+001
4.103990e+003,8.261412e+000
4.105919e+003,4.597037e+000
4.107847e+003,7.008623e+000
4.109776e+003,8.820690e+000
4.111704e+003,6.137198e+000
4.113633e+003,1.151858e+000
4.115561e+003,-2.715609e+000
4.117490e+003,3.669153e+000
4.119418e+003,1.151705e+001
4.121347e+003,1.800521e+001
4.123275e+003,1.750033e+001
4.125204e+003,1.149768e+001
4.127132e+003,-1.899976e+000
4.129061e+003,-4.983662e+000
4.130989e+003,7.008688e+000
4.132917e+003,9.907185e+000
4.134846e+003,7.527813e+000
4.136774e+003,5.696538e+000
4.138703e+003,6.543612e+000
4.140631e+003,1.066234e+001
4.142560e+003,1.190713e+001
4.144488e+003,1.177726e+001
4.146417e+003,1.286834e+001
4.148345e+003,9.708983e+000
4.150273e+003,1.933183e+000
4.152202e+003,4.248329e+000
4.154130e+003,9.933739e+000
4.156059e+003,1.515615e+001
4.157987e+003,1.495487e+001
4.159916e+003,9.988687e+000
4.161844e+003,7.169264e+000
4.163773e+003,5.098522e+000
4.165701e+003,6.868526e-001
4.167630e+003,7.700881e+000
4.169558e+003,1.919693e+001
4.171487e+003,1.021317e+001
4.173415e+003,3.537170e+000
4.175344e+003,9.233341e+000
4.177272e+003,1.181249e+001
4.179201e+003,1.105573e+001
4.181129e+003,7.270131e+000
4.183058e+003,4.238544e+000
4.184986e+003,2.926446e+000
4.186915e+003,5.773030e+000
4.188843e+003,9.838112e+000
4.190771e+003,1.279803e+001
4.192700e+003,1.038024e+001
4.194628e+003,3.311936e+000
4.196557e+003,1.316483e+001
4.198485e+003,2.068768e+001
4.200414e+003,9.121101e+000
4.202342e+003,1.607839e+000
4.204271e+003,2.519714e-001
4.206199e+003,5.466039e+000
4.208127e+003,1.057134e+001
4.210056e+003,1.226646e+001
4.211984e+003,1.481428e+001
4.213913e+003,1.591417e+001
4.215841e+003,6.803534e+000
4.217770e+003,2.989732e+000
4.219698e+003,9.875465e+000
4.221627e+003,7.424881e+000
4.223555e+003,3.408349e+000
4.225484e+003,8.485931e+000
4.227412e+003,9.411158e+000
4.229341e+003,5.742402e+000
4.231269e+003,7.773592e+000
4.233198e+003,9.408031e+000
4.235126e+003,3.730341e+000
4.237055e+003,8.293874e+000
4.238983e+003,1.646785e+001
4.240912e+003,7.373098e+000
4.242840e+003,2.036208e+000
4.244769e+003,8.452700e+000
4.246697e+003,1.126207e+001
4.248625e+003,1.172532e+001
4.250554e+003,1.149204e+001
