1.159199e+002,1.065041e+002
1.178484e+002,1.195263e+002
1.197769e+002,1.312570e+002
1.217053e+002,1.415181e+002
1.236338e+002,1.528431e+002
1.255623e+002,1.676649e+002
1.274907e+002,1.824043e+002
1.294192e+002,1.941760e+002
1.313477e+002,2.005136e+002
1.332761e+002,2.062958e+002
1.352046e+002,2.131802e+002
1.371331e+002,2.214798e+002
1.390615e+002,2.279596e+002
1.409900e+002,2.292024e+002
1.429185e+002,2.280621e+002
1.448469e+002,2.302155e+002
1.467754e+002,2.379526e+002
1.487039e+002,2.462377e+002
1.506323e+002,2.541287e+002
1.525608e+002,2.627789e+002
1.544893e+002,2.659424e+002
1.564177e+002,2.602259e+002
1.583462e+002,2.481183e+002
1.602747e+002,2.412478e+002
1.622031e+002,2.465513e+002
1.641316e+002,2.508676e+002
1.660601e+002,2.468294e+002
1.679885e+002,2.295265e+002
1.699170e+002,2.159353e+002
1.718455e+002,2.102311e+002
1.737739e+002,2.123665e+002
1.757024e+002,2.120935e+002
1.776309e+002,2.061191e+002
1.795593e+002,1.994613e+002
1.814878e+002,1.963277e+002
1.834163e+002,2.001545e+002
1.853447e+002,2.039323e+002
1.872732e+002,2.076214e+002
1.892017e+002,2.112542e+002
1.911301e+002,2.118272e+002
1.930586e+002,2.059236e+002
1.949871e+002,1.978165e+002
1.969155e+002,1.929866e+002
1.988440e+002,1.935464e+002
2.007725e+002,1.947973e+002
2.027009e+002,1.948920e+002
2.046294e+002,1.934675e+002
2.065579e+002,1.941108e+002
2.084864e+002,1.992648e+002
2.104148e+002,2.064923e+002
2.123433e+002,2.101682e+002
2.142718e+002,2.069922e+002
2.162002e+002,2.041073e+002
2.181287e+002,2.049228e+002
2.200572e+002,2.117181e+002
2.219856e+002,2.160769e+002
2.239141e+002,2.158862e+002
2.258426e+002,2.128127e+002
2.277710e+002,2.113292e+002
2.296995e+002,2.124930e+002
2.316280e+002,2.144203e+002
2.335564e+002,2.163143e+002
2.354849e+002,2.195167e+002
2.374134e+002,2.209329e+002
2.393418e+002,2.184699e+002
2.412703e+002,2.141562e+002
2.431988e+002,2.124120e+002
2.451272e+002,2.164127e+002
2.470557e+002,2.208284e+002
2.489842e+002,2.230590e+002
2.509126e+002,2.222136e+002
2.528411e+002,2.208072e+002
2.547696e+002,2.180147e+002
2.566980e+002,2.147242e+002
2.586265e+002,2.134850e+002
2.605550e+002,2.162575e+002
2.624834e+002,2.199480e+002
2.644119e+002,2.232307e+002
2.663404e+002,2.261702e+002
2.682688e+002,2.287676e+002
2.701973e+002,2.310332e+002
2.721258e+002,2.329197e+002
2.740542e+002,2.340946e+002
2.759827e+002,2.332344e+002
2.779112e+002,2.324730e+002
2.798396e+002,2.334653e+002
2.817681e+002,2.367007e+002
2.836966e+002,2.385115e+002
2.856250e+002,2.374728e+002
2.875535e+002,2.343232e+002
2.894820e+002,2.318263e+002
2.914104e+002,2.293978e+002
2.933389e+002,2.282681e+002
2.952674e+002,2.296015e+002
2.971958e+002,2.341768e+002
2.991243e+002,2.378447e+002
3.010528e+002,2.390351e+002
3.029813e+002,2.387170e+002
3.049097e+002,2.400703e+002
3.068382e+002,2.451201e+002
3.087667e+002,2.492721e+002
3.106951e+002,2.497736e+002
3.126236e+002,2.445913e+002
3.145521e+002,2.420553e+002
3.164805e+002,2.437271e+002
3.184090e+002,2.484596e+002
3.203375e+002,2.539740e+002
3.222659e+002,2.627278e+002
3.241944e+002,2.688682e+002
3.261229e+002,2.697602e+002
3.280513e+002,2.619471e+002
3.299798e+002,2.577578e+002
3.319083e+002,2.585548e+002
3.338367e+002,2.624897e+002
3.357652e+002,2.670844e+002
3.376937e+002,2.736863e+002
3.396221e+002,2.783564e+002
3.415506e+002,2.795130e+002
3.434791e+002,2.762212e+002
3.454075e+002,2.736066e+002
3.473360e+002,2.706722e+002
3.492645e+002,2.691638e+002
3.511929e+002,2.706893e+002
3.531214e+002,2.777550e+002
3.550499e+002,2.831323e+002
3.569783e+002,2.847368e+002
3.589068e+002,2.825308e+002
3.608353e+002,2.803072e+002
3.627637e+002,2.753291e+002
3.646922e+002,2.726512e+002
3.666207e+002,2.758580e+002
3.685491e+002,2.902810e+002
3.704776e+002,2.991787e+002
3.724061e+002,2.964680e+002
3.743345e+002,2.858023e+002
3.762630e+002,2.807432e+002
3.781915e+002,2.849042e+002
3.801199e+002,2.905798e+002
3.820484e+002,2.939662e+002
3.839769e+002,2.935323e+002
3.859053e+002,2.942023e+002
3.878338e+002,2.961707e+002
3.897623e+002,2.992371e+002
3.916907e+002,3.033708e+002
3.936192e+002,3.105490e+002
3.955477e+002,3.149428e+002
3.974761e+002,3.137709e+002
3.994046e+002,3.054989e+002
4.013331e+002,3.006172e+002
4.032615e+002,3.020155e+002
4.051900e+002,3.050125e+002
4.071185e+002,3.056386e+002
4.090469e+002,3.030786e+002
4.109754e+002,3.012277e+002
4.129039e+002,3.014755e+002
4.148323e+002,3.034925e+002
4.167608e+002,3.049034e+002
4.186893e+002,3.029643e+002
4.206177e+002,3.026381e+002
4.225462e+002,3.073818e+002
4.244747e+002,3.182383e+002
4.264032e+002,3.258701e+002
4.283316e+002,3.270127e+002
4.302601e+002,3.246529e+002
4.321886e+002,3.235977e+002
4.341170e+002,3.244433e+002
4.360455e+002,3.255678e+002
4.379740e+002,3.267407e+002
4.399024e+002,3.279895e+002
4.418309e+002,3.287696e+002
4.437594e+002,3.279814e+002
4.456878e+002,3.273668e+002
4.476163e+002,3.284445e+002
4.495448e+002,3.316369e+002
4.514732e+002,3.344472e+002
4.534017e+002,3.349645e+002
4.553302e+002,3.346728e+002
4.572586e+002,3.371225e+002
4.591871e+002,3.452386e+002
4.611156e+002,3.535571e+002
4.630440e+002,3.621486e+002
4.649725e+002,3.708951e+002
4.669010e+002,3.743448e+002
4.688294e+002,3.627985e+002
4.707579e+002,3.509034e+002
4.726864e+002,3.503997e+002
4.746148e+002,3.797471e+002
4.765433e+002,3.983868e+002
4.784718e+002,3.969981e+002
4.804002e+002,3.821196e+002
4.823287e+002,3.723714e+002
4.842572e+002,3.720155e+002
4.861856e+002,3.724033e+002
4.881141e+002,3.700656e+002
4.900426e+002,3.642520e+002
4.919710e+002,3.584179e+002
4.938995e+002,3.496372e+002
4.958280e+002,3.427846e+002
4.977564e+002,3.427802e+002
4.996849e+002,3.523328e+002
5.016134e+002,3.606635e+002
5.035418e+002,3.646253e+002
5.054703e+002,3.651436e+002
5.073988e+002,3.660450e+002
5.093272e+002,3.673948e+002
5.112557e+002,3.688684e+002
5.131842e+002,3.699087e+002
5.151127e+002,3.704865e+002
5.170411e+002,3.723441e+002
5.189696e+002,3.782040e+002
5.208981e+002,3.840202e+002
5.228265e+002,3.860856e+002
5.247550e+002,3.818640e+002
5.266835e+002,3.793177e+002
5.286119e+002,3.806880e+002
5.305404e+002,3.844767e+002
5.324689e+002,3.881072e+002
5.343973e+002,3.926129e+002
5.363258e+002,3.954541e+002
5.382543e+002,3.951346e+002
5.401827e+002,3.911606e+002
5.421112e+002,3.878514e+002
5.440397e+002,3.858967e+002
5.459681e+002,3.837628e+002
5.478966e+002,3.800027e+002
5.498251e+002,3.732363e+002
5.517535e+002,3.698228e+002
5.536820e+002,3.723413e+002
5.556105e+002,3.780066e+002
5.575389e+002,3.825186e+002
5.594674e+002,3.860422e+002
5.613959e+002,3.890072e+002
5.633243e+002,3.927802e+002
5.652528e+002,3.966912e+002
5.671813e+002,3.966893e+002
5.691097e+002,3.867322e+002
5.710382e+002,3.777045e+002
5.729667e+002,3.743629e+002
5.748951e+002,3.771192e+002
5.768236e+002,3.797213e+002
5.787521e+002,3.809602e+002
5.806805e+002,3.820498e+002
5.826090e+002,3.839256e+002
5.845375e+002,3.868290e+002
5.864659e+002,3.900623e+002
5.883944e+002,3.944329e+002
5.903229e+002,3.989925e+002
5.922513e+002,4.019126e+002
5.941798e+002,4.028371e+002
5.961083e+002,4.034257e+002
5.980367e+002,4.050887e+002
5.999652e+002,4.076647e+002
6.018937e+002,4.075308e+002
6.038221e+002,4.009739e+002
6.057506e+002,3.950344e+002
6.076791e+002,3.934708e+002
6.096075e+002,3.961953e+002
6.115360e+002,3.973278e+002
6.134645e+002,3.926535e+002
6.153929e+002,3.884945e+002
6.173214e+002,3.900106e+002
6.192499e+002,4.026120e+002
6.211783e+002,4.109707e+002
6.231068e+002,4.122754e+002
6.250353e+002,4.098478e+002
6.269637e+002,4.087379e+002
6.288922e+002,4.094164e+002
6.308207e+002,4.104629e+002
6.327491e+002,4.111286e+002
6.346776e+002,4.115652e+002
6.366061e+002,4.127995e+002
6.385345e+002,4.137866e+002
6.404630e+002,4.160848e+002
6.423915e+002,4.214825e+002
6.443199e+002,4.293109e+002
6.462484e+002,4.343289e+002
6.481769e+002,4.344765e+002
6.501053e+002,4.333710e+002
6.520338e+002,4.334246e+002
6.539623e+002,4.361112e+002
6.558907e+002,4.360661e+002
6.578192e+002,4.299474e+002
6.597477e+002,4.232403e+002
6.616761e+002,4.215009e+002
6.636046e+002,4.251880e+002
6.655331e+002,4.293643e+002
6.674615e+002,4.349076e+002
6.693900e+002,4.395481e+002
6.713185e+002,4.400475e+002
6.732469e+002,4.293091e+002
6.751754e+002,4.228274e+002
6.771039e+002,4.256000e+002
6.790323e+002,4.340766e+002
6.809608e+002,4.378032e+002
6.828893e+002,4.328361e+002
6.848177e+002,4.296090e+002
6.867462e+002,4.330169e+002
6.886747e+002,4.425609e+002
6.906031e+002,4.494793e+002
6.925316e+002,4.527914e+002
6.944601e+002,4.545028e+002
6.963885e+002,4.544520e+002
6.983170e+002,4.528852e+002
7.002455e+002,4.531659e+002
7.021740e+002,4.582669e+002
7.041024e+002,4.627814e+002
7.060309e+002,4.634174e+002
7.079594e+002,4.588391e+002
7.098878e+002,4.540018e+002
7.118163e+002,4.460408e+002
7.137448e+002,4.395838e+002
7.156732e+002,4.405818e+002
7.176017e+002,4.503550e+002
7.195302e+002,4.573066e+002
7.214586e+002,4.579894e+002
7.233871e+002,4.554716e+002
7.253156e+002,4.523771e+002
7.272440e+002,4.469315e+002
7.291725e+002,4.444091e+002
7.311010e+002,4.469538e+002
7.330294e+002,4.522208e+002
7.349579e+002,4.561083e+002
7.368864e+002,4.583398e+002
7.388149e+002,4.595178e+002
7.407433e+002,4.586152e+002
7.426718e+002,4.566184e+002
7.446003e+002,4.559085e+002
7.465287e+002,4.557441e+002
7.484572e+002,4.580654e+002
7.503857e+002,4.661662e+002
7.523141e+002,4.778819e+002
7.542426e+002,4.839469e+002
7.561711e+002,4.822360e+002
7.580995e+002,4.788006e+002
7.600280e+002,4.749583e+002
7.619565e+002,4.709816e+002
7.638849e+002,4.688625e+002
7.658134e+002,4.698145e+002
7.677419e+002,4.713061e+002
7.696703e+002,4.729276e+002
7.715988e+002,4.745230e+002
7.735273e+002,4.748646e+002
7.754557e+002,4.734689e+002
7.773842e+002,4.713119e+002
7.793127e+002,4.674360e+002
7.812411e+002,4.621854e+002
7.831696e+002,4.617979e+002
7.850981e+002,4.730125e+002
7.870266e+002,4.841637e+002
7.889550e+002,4.894259e+002
7.908835e+002,4.873996e+002
7.928120e+002,4.885226e+002
7.947404e+002,4.963623e+002
7.966689e+002,5.044840e+002
7.985974e+002,5.094510e+002
8.005258e+002,5.112566e+002
8.024543e+002,5.110533e+002
8.043828e+002,5.062584e+002
8.063112e+002,5.011301e+002
8.082397e+002,4.978183e+002
8.101682e+002,4.965580e+002
8.120966e+002,4.963282e+002
8.140251e+002,4.974415e+002
8.159536e+002,4.994620e+002
8.178820e+002,5.030840e+002
8.198105e+002,5.086491e+002
8.217390e+002,5.121913e+002
8.236674e+002,5.121089e+002
8.255959e+002,5.107280e+002
8.275244e+002,5.089008e+002
8.294528e+002,5.055081e+002
8.313813e+002,5.046263e+002
8.333098e+002,5.097457e+002
8.352382e+002,5.146031e+002
8.371667e+002,5.117639e+002
8.390952e+002,5.006606e+002
8.410236e+002,4.963004e+002
8.429521e+002,5.079789e+002
8.448806e+002,5.226871e+002
8.468090e+002,5.314178e+002
8.487375e+002,5.303389e+002
8.506660e+002,5.332234e+002
8.525944e+002,5.440688e+002
8.545229e+002,5.558255e+002
8.564514e+002,5.632374e+002
8.583798e+002,5.663819e+002
8.603083e+002,5.671543e+002
8.622368e+002,5.643173e+002
8.641652e+002,5.603531e+002
8.660937e+002,5.573710e+002
8.680222e+002,5.561740e+002
8.699506e+002,5.519286e+002
8.718791e+002,5.393105e+002
8.738076e+002,5.278028e+002
8.757360e+002,5.252750e+002
8.776645e+002,5.333502e+002
8.795930e+002,5.369839e+002
8.815214e+002,5.318629e+002
8.834499e+002,5.253860e+002
8.853784e+002,5.212465e+002
8.873068e+002,5.193878e+002
8.892353e+002,5.201943e+002
8.911638e+002,5.247941e+002
8.930922e+002,5.308675e+002
8.950207e+002,5.381369e+002
8.969492e+002,5.467575e+002
8.988776e+002,5.523182e+002
9.008061e+002,5.534379e+002
9.027346e+002,5.527564e+002
9.046630e+002,5.505833e+002
9.065915e+002,5.475359e+002
9.085200e+002,5.464192e+002
9.104484e+002,5.499728e+002
9.123769e+002,5.531848e+002
9.143054e+002,5.540552e+002
9.162338e+002,5.528950e+002
9.181623e+002,5.525104e+002
9.200908e+002,5.520511e+002
9.220192e+002,5.531485e+002
9.239477e+002,5.574307e+002
9.258762e+002,5.635496e+002
9.278046e+002,5.669597e+002
9.297331e+002,5.651427e+002
9.316616e+002,5.640241e+002
9.335900e+002,5.677446e+002
9.355185e+002,5.736786e+002
9.374470e+002,5.743190e+002
9.393754e+002,5.617087e+002
9.413039e+002,5.543735e+002
9.432324e+002,5.604777e+002
9.451608e+002,5.727505e+002
9.470893e+002,5.756659e+002
9.490178e+002,5.658934e+002
9.509462e+002,5.581483e+002
9.528747e+002,5.588024e+002
9.548032e+002,5.620078e+002
9.567316e+002,5.603853e+002
9.586601e+002,5.512876e+002
9.605886e+002,5.463649e+002
9.625170e+002,5.505993e+002
9.644455e+002,5.575887e+002
9.663740e+002,5.620515e+002
9.683024e+002,5.634003e+002
9.702309e+002,5.630786e+002
9.721594e+002,5.591517e+002
9.740878e+002,5.549293e+002
9.760163e+002,5.520178e+002
9.779448e+002,5.503242e+002
9.798733e+002,5.517236e+002
9.818018e+002,5.601886e+002
9.837302e+002,5.674152e+002
9.856587e+002,5.689421e+002
9.875872e+002,5.646600e+002
9.895156e+002,5.610307e+002
9.914441e+002,5.573602e+002
9.933726e+002,5.552629e+002
9.953010e+002,5.563595e+002
9.972295e+002,5.597639e+002
9.991580e+002,5.619382e+002
1.001086e+003,5.629871e+002
1.003015e+003,5.629031e+002
1.004943e+003,5.612420e+002
1.006872e+003,5.585401e+002
1.008800e+003,5.552037e+002
1.010729e+003,5.499473e+002
1.012657e+003,5.468295e+002
1.014586e+003,5.464097e+002
1.016514e+003,5.480987e+002
1.018443e+003,5.513136e+002
1.020371e+003,5.560629e+002
1.022300e+003,5.626227e+002
1.024228e+003,5.755562e+002
1.026156e+003,5.869282e+002
1.028085e+003,5.901437e+002
1.030013e+003,5.861413e+002
1.031942e+003,5.819134e+002
1.033870e+003,5.764033e+002
1.035799e+003,5.734172e+002
1.037727e+003,5.765961e+002
1.039656e+003,5.850289e+002
1.041584e+003,5.877725e+002
1.043513e+003,5.758499e+002
1.045441e+003,5.685444e+002
1.047370e+003,5.728997e+002
1.049298e+003,5.843815e+002
1.051227e+003,5.925995e+002
1.053155e+003,5.974160e+002
1.055083e+003,6.004321e+002
1.057012e+003,6.006262e+002
1.058940e+003,6.000920e+002
1.060869e+003,6.024076e+002
1.062797e+003,6.091027e+002
1.064726e+003,6.080874e+002
1.066654e+003,5.815461e+002
1.068583e+003,5.599734e+002
1.070511e+003,5.645349e+002
1.072440e+003,5.986236e+002
1.074368e+003,6.195368e+002
1.076297e+003,6.252341e+002
1.078225e+003,6.222181e+002
1.080154e+003,6.047865e+002
1.082082e+003,5.810290e+002
1.084010e+003,5.745443e+002
1.085939e+003,5.941999e+002
1.087867e+003,6.086691e+002
1.089796e+003,5.997725e+002
1.091724e+003,5.839041e+002
1.093653e+003,5.809808e+002
1.095581e+003,5.961320e+002
1.097510e+003,6.063289e+002
1.099438e+003,6.054558e+002
1.101367e+003,6.019121e+002
1.103295e+003,6.009836e+002
1.105224e+003,6.031198e+002
1.107152e+003,6.050126e+002
1.109081e+003,6.078824e+002
1.111009e+003,6.098560e+002
1.112938e+003,6.081232e+002
1.114866e+003,6.053799e+002
1.116794e+003,6.083629e+002
1.118723e+003,6.198779e+002
1.120651e+003,6.290045e+002
1.122580e+003,6.298054e+002
1.124508e+003,6.275867e+002
1.126437e+003,6.278558e+002
1.128365e+003,6.319676e+002
1.130294e+003,6.345510e+002
1.132222e+003,6.337869e+002
1.134151e+003,6.335677e+002
1.136079e+003,6.369033e+002
1.138008e+003,6.435463e+002
1.139936e+003,6.480574e+002
1.141865e+003,6.508093e+002
1.143793e+003,6.504215e+002
1.145721e+003,6.406161e+002
1.147650e+003,6.290667e+002
1.149578e+003,6.292546e+002
1.151507e+003,6.449249e+002
1.153435e+003,6.553849e+002
1.155364e+003,6.530691e+002
1.157292e+003,6.462067e+002
1.159221e+003,6.386858e+002
1.161149e+003,6.300717e+002
1.163078e+003,6.260992e+002
1.165006e+003,6.318630e+002
1.166935e+003,6.365490e+002
1.168863e+003,6.354661e+002
1.170792e+003,6.309572e+002
1.172720e+003,6.293120e+002
1.174648e+003,6.303755e+002
1.176577e+003,6.336626e+002
1.178505e+003,6.404047e+002
1.180434e+003,6.481858e+002
1.182362e+003,6.560405e+002
1.184291e+003,6.638079e+002
1.186219e+003,6.673597e+002
1.188148e+003,6.648301e+002
1.190076e+003,6.596141e+002
1.192005e+003,6.508188e+002
1.193933e+003,6.405984e+002
1.195862e+003,6.360363e+002
1.197790e+003,6.406303e+002
1.199719e+003,6.456946e+002
1.201647e+003,6.511024e+002
1.203575e+003,6.559857e+002
1.205504e+003,6.596058e+002
1.207432e+003,6.617708e+002
1.209361e+003,6.624771e+002
1.211289e+003,6.603154e+002
1.213218e+003,6.583488e+002
1.215146e+003,6.585598e+002
1.217075e+003,6.600179e+002
1.219003e+003,6.605954e+002
1.220932e+003,6.600525e+002
1.222860e+003,6.602460e+002
1.224789e+003,6.625081e+002
1.226717e+003,6.650359e+002
1.228646e+003,6.668868e+002
1.230574e+003,6.680426e+002
1.232502e+003,6.663213e+002
1.234431e+003,6.572140e+002
1.236359e+003,6.497039e+002
1.238288e+003,6.450161e+002
1.240216e+003,6.437779e+002
1.242145e+003,6.483890e+002
1.244073e+003,6.633684e+002
1.246002e+003,6.732056e+002
1.247930e+003,6.733073e+002
1.249859e+003,6.714619e+002
1.251787e+003,6.731197e+002
1.253716e+003,6.774081e+002
1.255644e+003,6.795981e+002
1.257573e+003,6.768956e+002
1.259501e+003,6.773942e+002
1.261429e+003,6.874703e+002
1.263358e+003,7.002134e+002
1.265286e+003,7.087598e+002
1.267215e+003,7.130822e+002
1.269143e+003,7.117245e+002
1.271072e+003,7.010126e+002
1.273000e+003,6.877946e+002
1.274929e+003,6.722010e+002
1.276857e+003,6.560372e+002
1.278786e+003,6.452440e+002
1.280714e+003,6.436721e+002
1.282643e+003,6.424647e+002
1.284571e+003,6.344501e+002
1.286500e+003,6.326373e+002
1.288428e+003,6.534484e+002
1.290356e+003,6.944152e+002
1.292285e+003,7.197873e+002
1.294213e+003,7.219108e+002
1.296142e+003,7.208098e+002
1.298070e+003,7.267799e+002
1.299999e+003,7.308742e+002
1.301927e+003,7.181592e+002
1.303856e+003,6.866584e+002
1.305784e+003,6.722849e+002
1.307713e+003,6.949820e+002
1.309641e+003,7.164280e+002
1.311570e+003,7.186556e+002
1.313498e+003,7.079880e+002
1.315427e+003,7.007401e+002
1.317355e+003,6.967137e+002
1.319283e+003,6.970176e+002
1.321212e+003,7.045283e+002
1.323140e+003,7.134017e+002
1.325069e+003,7.208972e+002
1.326997e+003,7.268195e+002
1.328926e+003,7.294279e+002
1.330854e+003,7.243673e+002
1.332783e+003,7.228208e+002
1.334711e+003,7.317469e+002
1.336640e+003,7.413531e+002
1.338568e+003,7.386835e+002
1.340497e+003,7.254667e+002
1.342425e+003,7.241161e+002
1.344354e+003,7.454913e+002
1.346282e+003,7.617083e+002
1.348210e+003,7.562831e+002
1.350139e+003,7.426591e+002
1.352068e+003,7.366412e+002
1.353996e+003,7.386920e+002
1.355924e+003,7.409205e+002
1.357853e+003,7.436652e+002
1.359781e+003,7.441802e+002
1.361710e+003,7.409311e+002
1.363638e+003,7.349762e+002
1.365567e+003,7.290015e+002
1.367495e+003,7.254580e+002
1.369424e+003,7.153420e+002
1.371352e+003,6.811594e+002
1.373281e+003,6.594598e+002
1.375209e+003,6.775758e+002
1.377138e+003,7.220013e+002
1.379066e+003,7.477657e+002
1.380995e+003,7.449770e+002
1.382923e+003,7.429496e+002
1.384851e+003,7.401707e+002
1.386780e+003,7.410458e+002
1.388708e+003,7.536100e+002
1.390637e+003,7.726226e+002
1.392565e+003,7.749247e+002
1.394494e+003,7.513701e+002
1.396422e+003,7.403055e+002
1.398351e+003,7.632308e+002
1.400279e+003,7.910114e+002
1.402208e+003,8.047855e+002
1.404136e+003,8.066804e+002
1.406065e+003,8.018066e+002
1.407993e+003,7.867575e+002
1.409922e+003,7.757988e+002
1.411850e+003,7.786965e+002
1.413778e+003,7.821631e+002
1.415707e+003,7.772289e+002
1.417635e+003,7.647037e+002
1.419564e+003,7.491816e+002
1.421492e+003,7.209111e+002
1.423421e+003,7.099471e+002
1.425349e+003,7.346745e+002
1.427278e+003,7.667618e+002
1.429206e+003,7.862978e+002
1.431135e+003,7.928886e+002
1.433063e+003,7.877722e+002
1.434992e+003,7.467933e+002
1.436920e+003,7.268701e+002
1.438849e+003,7.532673e+002
1.440777e+003,7.881724e+002
1.442705e+003,7.990473e+002
1.444634e+003,7.873489e+002
1.446562e+003,7.812084e+002
1.448491e+003,7.823379e+002
1.450419e+003,7.860194e+002
1.452348e+003,7.973763e+002
1.454276e+003,8.061176e+002
1.456205e+003,8.026418e+002
1.458133e+003,7.881978e+002
1.460062e+003,7.694431e+002
1.461990e+003,7.394005e+002
1.463919e+003,7.243561e+002
1.465847e+003,7.485616e+002
1.467776e+003,7.757855e+002
1.469704e+003,7.742295e+002
1.471632e+003,7.536917e+002
1.473561e+003,7.500831e+002
1.475489e+003,7.723398e+002
1.477418e+003,7.860338e+002
1.479346e+003,7.700757e+002
1.481275e+003,7.549554e+002
1.483203e+003,7.668492e+002
1.485132e+003,7.954833e+002
1.487060e+003,7.982312e+002
1.488989e+003,7.611662e+002
1.490917e+003,7.421266e+002
1.492846e+003,7.699401e+002
1.494774e+003,8.008766e+002
1.496703e+003,8.154656e+002
1.498631e+003,8.172911e+002
1.500559e+003,8.162668e+002
1.502488e+003,8.140660e+002
1.504416e+003,8.043042e+002
1.506345e+003,7.679813e+002
1.508273e+003,7.451987e+002
1.510202e+003,7.650640e+002
1.512130e+003,8.045704e+002
1.514059e+003,8.181136e+002
1.515987e+003,7.926806e+002
1.517916e+003,7.826601e+002
1.519844e+003,8.040865e+002
1.521773e+003,8.199276e+002
1.523701e+003,8.133907e+002
1.525630e+003,7.981865e+002
1.527558e+003,7.934318e+002
1.529486e+003,8.008437e+002
1.531415e+003,7.995948e+002
1.533343e+003,7.737063e+002
1.535272e+003,7.604230e+002
1.537200e+003,7.794330e+002
1.539129e+003,8.044227e+002
1.541057e+003,8.097241e+002
1.542986e+003,7.983235e+002
1.544914e+003,7.958915e+002
1.546843e+003,8.072870e+002
1.548771e+003,8.161533e+002
1.550700e+003,8.246650e+002
1.552628e+003,8.244551e+002
1.554557e+003,7.967753e+002
1.556485e+003,7.577656e+002
1.558413e+003,7.548048e+002
1.560342e+003,7.959773e+002
1.562270e+003,8.183710e+002
1.564199e+003,7.951843e+002
1.566127e+003,7.739489e+002
1.568056e+003,7.820555e+002
1.569984e+003,8.031807e+002
1.571913e+003,8.157856e+002
1.573841e+003,8.203220e+002
1.575770e+003,8.262884e+002
1.577698e+003,8.364939e+002
1.579627e+003,8.442967e+002
1.581555e+003,8.461909e+002
1.583484e+003,8.456707e+002
1.585412e+003,8.486594e+002
1.587340e+003,8.521736e+002
1.589269e+003,8.392213e+002
1.591197e+003,8.003819e+002
1.593126e+003,7.817664e+002
1.595054e+003,8.122496e+002
1.596983e+003,8.422419e+002
1.598911e+003,8.386876e+002
1.600840e+003,8.189568e+002
1.602768e+003,8.176595e+002
1.604697e+003,8.361779e+002
1.606625e+003,8.539933e+002
1.608554e+003,8.763826e+002
1.610482e+003,8.838736e+002
1.612411e+003,8.577494e+002
1.614339e+003,8.247013e+002
1.616267e+003,8.094119e+002
1.618196e+003,8.096621e+002
1.620124e+003,8.030376e+002
1.622053e+003,7.830563e+002
1.623981e+003,7.744885e+002
1.625910e+003,7.905587e+002
1.627838e+003,8.094946e+002
1.629767e+003,8.198665e+002
1.631695e+003,8.261528e+002
1.633624e+003,8.397655e+002
1.635552e+003,8.633596e+002
1.637481e+003,8.712623e+002
1.639409e+003,8.469938e+002
1.641338e+003,8.323245e+002
1.643266e+003,8.489946e+002
1.645194e+003,8.690780e+002
1.647123e+003,8.681341e+002
1.649051e+003,8.502977e+002
1.650980e+003,8.385388e+002
1.652908e+003,8.316536e+002
1.654837e+003,8.332214e+002
1.656765e+003,8.572366e+002
1.658694e+003,8.725804e+002
1.660622e+003,8.573990e+002
1.662551e+003,8.351227e+002
1.664479e+003,8.413132e+002
1.666408e+003,8.789183e+002
1.668336e+003,8.886929e+002
1.670265e+003,8.523621e+002
1.672193e+003,8.259329e+002
1.674121e+003,8.215991e+002
1.676050e+003,8.240177e+002
1.677978e+003,8.267565e+002
1.679907e+003,8.294051e+002
1.681835e+003,8.315675e+002
1.683764e+003,8.330643e+002
1.685692e+003,8.321597e+002
1.687621e+003,8.252778e+002
1.689549e+003,8.212479e+002
1.691478e+003,8.265480e+002
1.693406e+003,8.313414e+002
1.695335e+003,8.210800e+002
1.697263e+003,8.055220e+002
1.699192e+003,8.212454e+002
1.701120e+003,8.844331e+002
1.703048e+003,9.200748e+002
1.704977e+003,9.077977e+002
1.706905e+003,8.886186e+002
1.708834e+003,8.583155e+002
1.710762e+003,8.368856e+002
1.712691e+003,8.524597e+002
1.714619e+003,8.946724e+002
1.716548e+003,9.054827e+002
1.718476e+003,8.733981e+002
1.720405e+003,8.502127e+002
1.722333e+003,8.392462e+002
1.724262e+003,8.402128e+002
1.726190e+003,8.667377e+002
1.728119e+003,8.937036e+002
1.730047e+003,8.932893e+002
1.731975e+003,8.694142e+002
1.733904e+003,8.543199e+002
1.735832e+003,8.511261e+002
1.737761e+003,8.457856e+002
1.739689e+003,8.311424e+002
1.741618e+003,8.223342e+002
1.743546e+003,8.217853e+002
1.745475e+003,8.312638e+002
1.747403e+003,8.611955e+002
1.749332e+003,9.059437e+002
1.751260e+003,9.211128e+002
1.753189e+003,8.987819e+002
1.755117e+003,8.794215e+002
1.757046e+003,8.641217e+002
1.758974e+003,8.607195e+002
1.760902e+003,8.870859e+002
1.762831e+003,9.142902e+002
1.764759e+003,9.101975e+002
1.766688e+003,8.834439e+002
1.768616e+003,8.745488e+002
1.770545e+003,8.872483e+002
1.772473e+003,8.961684e+002
1.774402e+003,8.939413e+002
1.776330e+003,8.926794e+002
1.778259e+003,8.990697e+002
1.780187e+003,9.062696e+002
1.782116e+003,9.062367e+002
1.784044e+003,9.034133e+002
1.785973e+003,9.143347e+002
1.787901e+003,9.413191e+002
1.789829e+003,9.493741e+002
1.791758e+003,9.251584e+002
1.793686e+003,9.031405e+002
1.795615e+003,8.959602e+002
1.797543e+003,8.942784e+002
1.799472e+003,8.921472e+002
1.801400e+003,8.905275e+002
1.803329e+003,8.927272e+002
1.805257e+003,8.984143e+002
1.807186e+003,8.961526e+002
1.809114e+003,8.764585e+002
1.811043e+003,8.737371e+002
1.812971e+003,9.198082e+002
1.814900e+003,9.586141e+002
1.816828e+003,9.526226e+002
1.818756e+003,9.248058e+002
1.820685e+003,9.009960e+002
1.822613e+003,8.825713e+002
1.824542e+003,8.848250e+002
1.826470e+003,9.177532e+002
1.828399e+003,9.368002e+002
1.830327e+003,9.222653e+002
1.832256e+003,9.094818e+002
1.834184e+003,9.182813e+002
1.836113e+003,9.286777e+002
1.838041e+003,9.179184e+002
1.839970e+003,8.931131e+002
1.841898e+003,8.795634e+002
1.843827e+003,8.799785e+002
1.845755e+003,8.828197e+002
1.847684e+003,8.927682e+002
1.849612e+003,8.978881e+002
1.851541e+003,8.880375e+002
1.853469e+003,8.804977e+002
1.855397e+003,8.892491e+002
1.857326e+003,9.049725e+002
1.859254e+003,9.125163e+002
1.861183e+003,9.117054e+002
1.863111e+003,9.092661e+002
1.865040e+003,9.008080e+002
1.866968e+003,9.012272e+002
1.868897e+003,9.210709e+002
1.870825e+003,9.378020e+002
1.872754e+003,9.472010e+002
1.874682e+003,9.489030e+002
1.876611e+003,9.359084e+002
1.878539e+003,9.160056e+002
1.880468e+003,9.154329e+002
1.882396e+003,9.359471e+002
1.884324e+003,9.425352e+002
1.886253e+003,9.251928e+002
1.888181e+003,9.160746e+002
1.890110e+003,9.308619e+002
1.892038e+003,9.435809e+002
1.893967e+003,9.370463e+002
1.895895e+003,9.248188e+002
1.897824e+003,9.201420e+002
1.899752e+003,9.213962e+002
1.901681e+003,9.222208e+002
1.903609e+003,9.221233e+002
1.905538e+003,9.345829e+002
1.907466e+003,9.751385e+002
1.909395e+003,9.933431e+002
1.911323e+003,9.453752e+002
1.913251e+003,9.044743e+002
1.915180e+003,9.204304e+002
1.917108e+003,9.591277e+002
1.919037e+003,9.818127e+002
1.920965e+003,9.885074e+002
1.922894e+003,9.777228e+002
1.924822e+003,9.418480e+002
1.926751e+003,9.183991e+002
1.928679e+003,9.047587e+002
1.930608e+003,9.099246e+002
1.932536e+003,9.617065e+002
1.934465e+003,1.002756e+003
1.936393e+003,9.895577e+002
1.938322e+003,9.537229e+002
1.940250e+003,9.322109e+002
1.942178e+003,9.253066e+002
1.944107e+003,9.394269e+002
1.946035e+003,9.836707e+002
1.947964e+003,1.010390e+003
1.949892e+003,1.008963e+003
1.951821e+003,1.007213e+003
1.953749e+003,1.019706e+003
1.955678e+003,1.023565e+003
1.957606e+003,9.950600e+002
1.959535e+003,9.622466e+002
1.961463e+003,9.630174e+002
1.963392e+003,9.841663e+002
1.965320e+003,9.804562e+002
1.967249e+003,9.503125e+002
1.969177e+003,9.343907e+002
1.971105e+003,9.415955e+002
1.973034e+003,9.483021e+002
1.974962e+003,9.468551e+002
1.976891e+003,9.466741e+002
1.978819e+003,9.536644e+002
1.980748e+003,9.625255e+002
1.982676e+003,9.691590e+002
1.984605e+003,9.732690e+002
1.986533e+003,9.744756e+002
1.988462e+003,9.725847e+002
1.990390e+003,9.674497e+002
1.992319e+003,9.501736e+002
1.994247e+003,9.456486e+002
1.996176e+003,9.684893e+002
1.998104e+003,9.843091e+002
2.000032e+003,9.770726e+002
2.001961e+003,9.682390e+002
2.003889e+003,9.729222e+002
2.005818e+003,9.831865e+002
2.007746e+003,9.864740e+002
2.009675e+003,9.841913e+002
2.011603e+003,9.884236e+002
2.013532e+003,1.000275e+003
2.015460e+003,1.003198e+003
2.017389e+003,9.900454e+002
2.019317e+003,9.883091e+002
2.021246e+003,1.017749e+003
2.023174e+003,1.039652e+003
2.025103e+003,1.030341e+003
2.027031e+003,1.010252e+003
2.028959e+003,9.905625e+002
2.030888e+003,9.746609e+002
2.032816e+003,9.733804e+002
2.034745e+003,9.852626e+002
2.036673e+003,9.838765e+002
2.038602e+003,9.600730e+002
2.040530e+003,9.505842e+002
2.042459e+003,9.711913e+002
2.044387e+003,9.832910e+002
2.046316e+003,9.733749e+002
2.048244e+003,9.631470e+002
2.050173e+003,9.622147e+002
2.052101e+003,9.654760e+002
2.054030e+003,9.678675e+002
2.055958e+003,9.709001e+002
2.057886e+003,9.811059e+002
2.059815e+003,9.968796e+002
2.061743e+003,9.995668e+002
2.063672e+003,9.865656e+002
2.065600e+003,9.749935e+002
2.067529e+003,9.626457e+002
2.069457e+003,9.649844e+002
2.071386e+003,1.003302e+003
2.073314e+003,1.033941e+003
2.075243e+003,1.030181e+003
2.077171e+003,1.015200e+003
2.079100e+003,1.006745e+003
2.081028e+003,1.003550e+003
2.082957e+003,1.004454e+003
2.084885e+003,1.008906e+003
2.086813e+003,1.009672e+003
2.088742e+003,1.002920e+003
2.090670e+003,1.003452e+003
2.092599e+003,1.018644e+003
2.094527e+003,1.025517e+003
2.096456e+003,1.016323e+003
2.098384e+003,1.005254e+003
2.100313e+003,9.921216e+002
2.102241e+003,9.851218e+002
2.104170e+003,9.952183e+002
2.106098e+003,1.010608e+003
2.108027e+003,1.015682e+003
2.109955e+003,1.013498e+003
2.111884e+003,1.012214e+003
2.113812e+003,1.011929e+003
2.115740e+003,1.017003e+003
2.117669e+003,1.031719e+003
2.119597e+003,1.039211e+003
2.121526e+003,1.033170e+003
2.123454e+003,1.026748e+003
2.125383e+003,1.020827e+003
2.127311e+003,1.017036e+003
2.129240e+003,1.010787e+003
2.131168e+003,1.011691e+003
2.133097e+003,1.041574e+003
2.135025e+003,1.077254e+003
2.136954e+003,1.069584e+003
2.138882e+003,1.029339e+003
2.140811e+003,1.010945e+003
2.142739e+003,1.015622e+003
2.144667e+003,1.018449e+003
2.146596e+003,1.016604e+003
2.148524e+003,1.016454e+003
2.150453e+003,1.019615e+003
2.152381e+003,1.023323e+003
2.154310e+003,1.026521e+003
2.156238e+003,1.029943e+003
2.158167e+003,1.031812e+003
2.160095e+003,1.036351e+003
2.162024e+003,1.055408e+003
2.163952e+003,1.075528e+003
2.165881e+003,1.067609e+003
2.167809e+003,1.038149e+003
2.169738e+003,1.025516e+003
2.171666e+003,1.029711e+003
2.173594e+003,1.033598e+003
2.175523e+003,1.036269e+003
2.177451e+003,1.036485e+003
2.179380e+003,1.033142e+003
2.181308e+003,1.030456e+003
2.183237e+003,1.032263e+003
2.185165e+003,1.032391e+003
2.187094e+003,1.024815e+003
2.189022e+003,1.019239e+003
2.190951e+003,1.027138e+003
2.192879e+003,1.037321e+003
2.194808e+003,1.030794e+003
2.196736e+003,1.015604e+003
2.198665e+003,1.014332e+003
2.200593e+003,1.026492e+003
2.202521e+003,1.049329e+003
2.204450e+003,1.085636e+003
2.206378e+003,1.092238e+003
2.208307e+003,1.057681e+003
2.210235e+003,1.032267e+003
2.212164e+003,1.029263e+003
2.214092e+003,1.029440e+003
2.216021e+003,1.025910e+003
2.217949e+003,1.025059e+003
2.219878e+003,1.032097e+003
2.221806e+003,1.040182e+003
2.223735e+003,1.043007e+003
2.225663e+003,1.043983e+003
2.227592e+003,1.046511e+003
2.229520e+003,1.051016e+003
2.231448e+003,1.064516e+003
2.233377e+003,1.084204e+003
2.235305e+003,1.073892e+003
2.237234e+003,1.032606e+003
2.239162e+003,1.015147e+003
2.241091e+003,1.031115e+003
2.243019e+003,1.044835e+003
2.244948e+003,1.051797e+003
2.246876e+003,1.051380e+003
2.248805e+003,1.029857e+003
2.250733e+003,1.018629e+003
2.252662e+003,1.042217e+003
2.254590e+003,1.063828e+003
2.256519e+003,1.056857e+003
2.258447e+003,1.040713e+003
2.260375e+003,1.032218e+003
2.262304e+003,1.029646e+003
2.264232e+003,1.031668e+003
2.266161e+003,1.036523e+003
2.268089e+003,1.038467e+003
2.270018e+003,1.037511e+003
2.271946e+003,1.034925e+003
2.273875e+003,1.029699e+003
2.275803e+003,1.032192e+003
2.277732e+003,1.051952e+003
2.279660e+003,1.059768e+003
2.281589e+003,1.045934e+003
2.283517e+003,1.033020e+003
2.285446e+003,1.020341e+003
2.287374e+003,1.015297e+003
2.289302e+003,1.025554e+003
2.291231e+003,1.037012e+003
2.293159e+003,1.042301e+003
2.295088e+003,1.044721e+003
2.297016e+003,1.047318e+003
2.298945e+003,1.048560e+003
2.300873e+003,1.045790e+003
2.302802e+003,1.040380e+003
2.304730e+003,1.032427e+003
2.306659e+003,1.023776e+003
2.308587e+003,1.032482e+003
2.310516e+003,1.062496e+003
2.312444e+003,1.075290e+003
2.314373e+003,1.067755e+003
2.316301e+003,1.061764e+003
2.318229e+003,1.059666e+003
2.320158e+003,1.058130e+003
2.322086e+003,1.057452e+003
2.324015e+003,1.055788e+003
2.325943e+003,1.050767e+003
2.327872e+003,1.047408e+003
2.329800e+003,1.047902e+003
2.331729e+003,1.049811e+003
2.333657e+003,1.053990e+003
2.335586e+003,1.055897e+003
2.337514e+003,1.048464e+003
2.339443e+003,1.038596e+003
2.341371e+003,1.027569e+003
2.343300e+003,1.024381e+003
2.345228e+003,1.063073e+003
2.347156e+003,1.121837e+003
2.349085e+003,1.124267e+003
2.351013e+003,1.074979e+003
2.352942e+003,1.045805e+003
2.354870e+003,1.039648e+003
2.356799e+003,1.038402e+003
2.358727e+003,1.046173e+003
2.360656e+003,1.046214e+003
2.362584e+003,1.031934e+003
2.364513e+003,1.027768e+003
2.366441e+003,1.041142e+003
2.368370e+003,1.054374e+003
2.370298e+003,1.067248e+003
2.372227e+003,1.069519e+003
2.374155e+003,1.043640e+003
2.376083e+003,1.024138e+003
2.378012e+003,1.029352e+003
2.379940e+003,1.046684e+003
2.381869e+003,1.083406e+003
2.383797e+003,1.111534e+003
2.385726e+003,1.092942e+003
2.387654e+003,1.055996e+003
2.389583e+003,1.036266e+003
2.391511e+003,1.030693e+003
2.393440e+003,1.038112e+003
2.395368e+003,1.053609e+003
2.397297e+003,1.053489e+003
2.399225e+003,1.040898e+003
2.401154e+003,1.069698e+003
2.403082e+003,1.151704e+003
2.405010e+003,1.169780e+003
2.406939e+003,1.103336e+003
2.408867e+003,1.082968e+003
2.410796e+003,1.128907e+003
2.412724e+003,1.149946e+003
2.414653e+003,1.119284e+003
2.416581e+003,1.112363e+003
2.418510e+003,1.171321e+003
2.420438e+003,1.207460e+003
2.422367e+003,1.174003e+003
2.424295e+003,1.146462e+003
2.426224e+003,1.157053e+003
2.428152e+003,1.169936e+003
2.430081e+003,1.172252e+003
2.432009e+003,1.168681e+003
2.433938e+003,1.159558e+003
2.435866e+003,1.149734e+003
2.437794e+003,1.142947e+003
2.439723e+003,1.137661e+003
2.441651e+003,1.129365e+003
2.443580e+003,1.122887e+003
2.445508e+003,1.130913e+003
2.447437e+003,1.143550e+003
2.449365e+003,1.136000e+003
2.451294e+003,1.114487e+003
2.453222e+003,1.103361e+003
2.455151e+003,1.100360e+003
2.457079e+003,1.093359e+003
2.459008e+003,1.083058e+003
2.460936e+003,1.077109e+003
2.462865e+003,1.075854e+003
2.464793e+003,1.081888e+003
2.466721e+003,1.100552e+003
2.468650e+003,1.107559e+003
2.470578e+003,1.098484e+003
2.472507e+003,1.094209e+003
2.474435e+003,1.098918e+003
2.476364e+003,1.096191e+003
2.478292e+003,1.078388e+003
2.480221e+003,1.066637e+003
2.482149e+003,1.063073e+003
2.484078e+003,1.072423e+003
2.486006e+003,1.117782e+003
2.487935e+003,1.143156e+003
2.489863e+003,1.118946e+003
2.491792e+003,1.089069e+003
2.493720e+003,1.060052e+003
2.495648e+003,1.043069e+003
2.497577e+003,1.050217e+003
2.499505e+003,1.063512e+003
2.501434e+003,1.076379e+003
2.503362e+003,1.084749e+003
2.505291e+003,1.084928e+003
2.507219e+003,1.079794e+003
2.509148e+003,1.064827e+003
2.511076e+003,1.052876e+003
2.513005e+003,1.066927e+003
2.514933e+003,1.088454e+003
2.516862e+003,1.088166e+003
2.518790e+003,1.077435e+003
2.520719e+003,1.076607e+003
2.522647e+003,1.082992e+003
2.524575e+003,1.092577e+003
2.526504e+003,1.102896e+003
2.528432e+003,1.101204e+003
2.530361e+003,1.090338e+003
2.532289e+003,1.087822e+003
2.534218e+003,1.091794e+003
2.536146e+003,1.089636e+003
2.538075e+003,1.080878e+003
2.540003e+003,1.068848e+003
2.541932e+003,1.052070e+003
2.543860e+003,1.048406e+003
2.545789e+003,1.060982e+003
2.547717e+003,1.067565e+003
2.549646e+003,1.067106e+003
2.551574e+003,1.067536e+003
2.553502e+003,1.069857e+003
2.555431e+003,1.071112e+003
2.557359e+003,1.070479e+003
2.559288e+003,1.069043e+003
2.561216e+003,1.062893e+003
2.563145e+003,1.064193e+003
2.565073e+003,1.079545e+003
2.567002e+003,1.085078e+003
2.568930e+003,1.074018e+003
2.570859e+003,1.061930e+003
2.572787e+003,1.047702e+003
2.574716e+003,1.044483e+003
2.576644e+003,1.069844e+003
2.578573e+003,1.083690e+003
2.580501e+003,1.062846e+003
2.582429e+003,1.049153e+003
2.584358e+003,1.058834e+003
2.586287e+003,1.066806e+003
2.588215e+003,1.062713e+003
2.590144e+003,1.056912e+003
2.592072e+003,1.053865e+003
2.594000e+003,1.051607e+003
2.595929e+003,1.039203e+003
2.597857e+003,1.041107e+003
2.599786e+003,1.094048e+003
2.601714e+003,1.132763e+003
2.603643e+003,1.103455e+003
2.605571e+003,1.073620e+003
2.607500e+003,1.095704e+003
2.609428e+003,1.124878e+003
2.611357e+003,1.134898e+003
2.613285e+003,1.130240e+003
2.615214e+003,1.102541e+003
2.617142e+003,1.075364e+003
2.619071e+003,1.071658e+003
2.620999e+003,1.075102e+003
2.622927e+003,1.074116e+003
2.624856e+003,1.070465e+003
2.626784e+003,1.063274e+003
2.628713e+003,1.057188e+003
2.630641e+003,1.059358e+003
2.632570e+003,1.064022e+003
2.634498e+003,1.063021e+003
2.636427e+003,1.061469e+003
2.638355e+003,1.061775e+003
2.640284e+003,1.068605e+003
2.642212e+003,1.099310e+003
2.644141e+003,1.131030e+003
2.646069e+003,1.124952e+003
2.647998e+003,1.100080e+003
2.649926e+003,1.076546e+003
2.651854e+003,1.063778e+003
2.653783e+003,1.087845e+003
2.655711e+003,1.126442e+003
2.657640e+003,1.150929e+003
2.659568e+003,1.160384e+003
2.661497e+003,1.146552e+003
2.663425e+003,1.120501e+003
2.665354e+003,1.098056e+003
2.667282e+003,1.083743e+003
2.669211e+003,1.098680e+003
2.671139e+003,1.121797e+003
2.673068e+003,1.101469e+003
2.674996e+003,1.064356e+003
2.676925e+003,1.073478e+003
2.678853e+003,1.109782e+003
2.680781e+003,1.133393e+003
2.682710e+003,1.145192e+003
2.684638e+003,1.143050e+003
2.686567e+003,1.133279e+003
2.688495e+003,1.130194e+003
2.690424e+003,1.130090e+003
2.692352e+003,1.121595e+003
2.694281e+003,1.110063e+003
2.696209e+003,1.109967e+003
2.698138e+003,1.117489e+003
2.700066e+003,1.127680e+003
2.701995e+003,1.134604e+003
2.703923e+003,1.118832e+003
2.705852e+003,1.092969e+003
2.707780e+003,1.091718e+003
2.709708e+003,1.103114e+003
2.711637e+003,1.094894e+003
2.713565e+003,1.077115e+003
2.715494e+003,1.074387e+003
2.717422e+003,1.080600e+003
2.719351e+003,1.085810e+003
2.721279e+003,1.089183e+003
2.723208e+003,1.089369e+003
2.725136e+003,1.085700e+003
2.727065e+003,1.066398e+003
2.728993e+003,1.047758e+003
2.730922e+003,1.072001e+003
2.732850e+003,1.113106e+003
2.734779e+003,1.124824e+003
2.736707e+003,1.121946e+003
2.738635e+003,1.138696e+003
2.740564e+003,1.156045e+003
2.742492e+003,1.128260e+003
2.744421e+003,1.088425e+003
2.746349e+003,1.085889e+003
2.748278e+003,1.104771e+003
2.750206e+003,1.133346e+003
2.752135e+003,1.158401e+003
2.754063e+003,1.154752e+003
2.755992e+003,1.140868e+003
2.757920e+003,1.140917e+003
2.759849e+003,1.146150e+003
2.761777e+003,1.158198e+003
2.763706e+003,1.158923e+003
2.765634e+003,1.103628e+003
2.767563e+003,1.052221e+003
2.769491e+003,1.086945e+003
2.771419e+003,1.138590e+003
2.773348e+003,1.149091e+003
2.775276e+003,1.137895e+003
2.777205e+003,1.106234e+003
2.779133e+003,1.078496e+003
2.781062e+003,1.081192e+003
2.782990e+003,1.089228e+003
2.784919e+003,1.079030e+003
2.786847e+003,1.072481e+003
2.788776e+003,1.093166e+003
2.790704e+003,1.108658e+003
2.792633e+003,1.094978e+003
2.794561e+003,1.076254e+003
2.796490e+003,1.062773e+003
2.798418e+003,1.054277e+003
2.800346e+003,1.048224e+003
2.802275e+003,1.051803e+003
2.804203e+003,1.074619e+003
2.806132e+003,1.097511e+003
2.808060e+003,1.112940e+003
2.809989e+003,1.125396e+003
2.811917e+003,1.140458e+003
2.813846e+003,1.141543e+003
2.815774e+003,1.116701e+003
2.817703e+003,1.094249e+003
2.819631e+003,1.079510e+003
2.821560e+003,1.076302e+003
2.823488e+003,1.094864e+003
2.825417e+003,1.101236e+003
2.827345e+003,1.085931e+003
2.829273e+003,1.080535e+003
2.831202e+003,1.096277e+003
2.833130e+003,1.105291e+003
2.835059e+003,1.101100e+003
2.836987e+003,1.096464e+003
2.838916e+003,1.091311e+003
2.840844e+003,1.082418e+003
2.842773e+003,1.067554e+003
2.844701e+003,1.080497e+003
2.846630e+003,1.133220e+003
2.848558e+003,1.147348e+003
2.850487e+003,1.121337e+003
2.852415e+003,1.098065e+003
2.854344e+003,1.079682e+003
2.856272e+003,1.080336e+003
2.858200e+003,1.098316e+003
2.860129e+003,1.121489e+003
2.862057e+003,1.145597e+003
2.863986e+003,1.136239e+003
2.865914e+003,1.109202e+003
2.867843e+003,1.126967e+003
2.869771e+003,1.162908e+003
2.871700e+003,1.147642e+003
2.873628e+003,1.112159e+003
2.875557e+003,1.125885e+003
2.877485e+003,1.152522e+003
2.879414e+003,1.130240e+003
2.881342e+003,1.094389e+003
2.883271e+003,1.072542e+003
2.885199e+003,1.071052e+003
2.887127e+003,1.114471e+003
2.889056e+003,1.158639e+003
2.890984e+003,1.170400e+003
2.892913e+003,1.165593e+003
2.894841e+003,1.142263e+003
2.896770e+003,1.121356e+003
2.898698e+003,1.103782e+003
2.900627e+003,1.109399e+003
2.902555e+003,1.172150e+003
2.904484e+003,1.199775e+003
2.906412e+003,1.133344e+003
2.908341e+003,1.102919e+003
2.910269e+003,1.184190e+003
2.912198e+003,1.230658e+003
2.914126e+003,1.209501e+003
2.916054e+003,1.217480e+003
2.917983e+003,1.271005e+003
2.919911e+003,1.321868e+003
2.921840e+003,1.367592e+003
2.923768e+003,1.388621e+003
2.925697e+003,1.381421e+003
2.927625e+003,1.386042e+003
2.929554e+003,1.403071e+003
2.931482e+003,1.438780e+003
2.933411e+003,1.484594e+003
2.935339e+003,1.475182e+003
2.937268e+003,1.421087e+003
2.939196e+003,1.356807e+003
2.941125e+003,1.292689e+003
2.943053e+003,1.246269e+003
2.944981e+003,1.223534e+003
2.946910e+003,1.249795e+003
2.948838e+003,1.291917e+003
2.950767e+003,1.304338e+003
2.952695e+003,1.313913e+003
2.954624e+003,1.346642e+003
2.956552e+003,1.382556e+003
2.958481e+003,1.410726e+003
2.960409e+003,1.432167e+003
2.962338e+003,1.444437e+003
2.964266e+003,1.455750e+003
2.966195e+003,1.476630e+003
2.968123e+003,1.479179e+003
2.970052e+003,1.445300e+003
2.971980e+003,1.408994e+003
2.973908e+003,1.377321e+003
2.975837e+003,1.329923e+003
2.977765e+003,1.258199e+003
2.979694e+003,1.220553e+003
2.981622e+003,1.232006e+003
2.983551e+003,1.232289e+003
2.985479e+003,1.221015e+003
2.987408e+003,1.234659e+003
2.989336e+003,1.263896e+003
2.991265e+003,1.249052e+003
2.993193e+003,1.207176e+003
2.995122e+003,1.196667e+003
2.997050e+003,1.201836e+003
2.998979e+003,1.188543e+003
3.000907e+003,1.169937e+003
3.002835e+003,1.152213e+003
3.004764e+003,1.149521e+003
3.006692e+003,1.196009e+003
3.008621e+003,1.234616e+003
3.010549e+003,1.224986e+003
3.012478e+003,1.202776e+003
3.014406e+003,1.175381e+003
3.016335e+003,1.157520e+003
3.018263e+003,1.163424e+003
3.020192e+003,1.163553e+003
3.022120e+003,1.155772e+003
3.024049e+003,1.130687e+003
3.025977e+003,1.074654e+003
3.027906e+003,1.053774e+003
3.029834e+003,1.076413e+003
3.031762e+003,1.084252e+003
3.033691e+003,1.078117e+003
3.035619e+003,1.075163e+003
3.037548e+003,1.075386e+003
3.039476e+003,1.070106e+003
3.041405e+003,1.068847e+003
3.043333e+003,1.112681e+003
3.045262e+003,1.159714e+003
3.047190e+003,1.135724e+003
3.049119e+003,1.105066e+003
3.051047e+003,1.152760e+003
3.052976e+003,1.190605e+003
3.054904e+003,1.151060e+003
3.056833e+003,1.110439e+003
3.058761e+003,1.099231e+003
3.060689e+003,1.105518e+003
3.062618e+003,1.145612e+003
3.064546e+003,1.155255e+003
3.066475e+003,1.121219e+003
3.068403e+003,1.098413e+003
3.070332e+003,1.096603e+003
3.072260e+003,1.088901e+003
3.074189e+003,1.075012e+003
3.076117e+003,1.109736e+003
3.078046e+003,1.170812e+003
3.079974e+003,1.157564e+003
3.081903e+003,1.110223e+003
3.083831e+003,1.128687e+003
3.085760e+003,1.165831e+003
3.087688e+003,1.156031e+003
3.089616e+003,1.137047e+003
3.091545e+003,1.137619e+003
3.093473e+003,1.143128e+003
3.095402e+003,1.152440e+003
3.097330e+003,1.150973e+003
3.099259e+003,1.130840e+003
3.101187e+003,1.108355e+003
3.103116e+003,1.073239e+003
3.105044e+003,1.074348e+003
3.106973e+003,1.118688e+003
3.108901e+003,1.124388e+003
3.110830e+003,1.090587e+003
3.112758e+003,1.096832e+003
3.114687e+003,1.130431e+003
3.116615e+003,1.120366e+003
3.118543e+003,1.087566e+003
3.120472e+003,1.071902e+003
3.122400e+003,1.063990e+003
3.124329e+003,1.052887e+003
3.126257e+003,1.045137e+003
3.128186e+003,1.043063e+003
3.130114e+003,1.051859e+003
3.132043e+003,1.091777e+003
3.133971e+003,1.111189e+003
3.135900e+003,1.086719e+003
3.137828e+003,1.065889e+003
3.139757e+003,1.050884e+003
3.141685e+003,1.060851e+003
3.143614e+003,1.099314e+003
3.145542e+003,1.104421e+003
3.147470e+003,1.082152e+003
3.149399e+003,1.068466e+003
3.151327e+003,1.064373e+003
3.153256e+003,1.078742e+003
3.155184e+003,1.094899e+003
3.157113e+003,1.091512e+003
3.159041e+003,1.079244e+003
3.160970e+003,1.048901e+003
3.162898e+003,1.039119e+003
3.164827e+003,1.098263e+003
3.166755e+003,1.115671e+003
3.168684e+003,1.059057e+003
3.170612e+003,1.035531e+003
3.172541e+003,1.066728e+003
3.174469e+003,1.091668e+003
3.176397e+003,1.108605e+003
3.178326e+003,1.088117e+003
3.180254e+003,1.050669e+003
3.182183e+003,1.062311e+003
3.184111e+003,1.093394e+003
3.186040e+003,1.103134e+003
3.187968e+003,1.098876e+003
3.189897e+003,1.077936e+003
3.191825e+003,1.063002e+003
3.193754e+003,1.069925e+003
3.195682e+003,1.080805e+003
3.197611e+003,1.098217e+003
3.199539e+003,1.089704e+003
3.201468e+003,1.044216e+003
3.203396e+003,1.021224e+003
3.205324e+003,1.022734e+003
3.207253e+003,1.014420e+003
3.209181e+003,1.005987e+003
3.211110e+003,1.031813e+003
3.213038e+003,1.070503e+003
3.214967e+003,1.101366e+003
3.216895e+003,1.111165e+003
3.218824e+003,1.077459e+003
3.220752e+003,1.044597e+003
3.222681e+003,1.023357e+003
3.224609e+003,1.033927e+003
3.226538e+003,1.092212e+003
3.228466e+003,1.109205e+003
3.230395e+003,1.067402e+003
3.232323e+003,1.070814e+003
3.234251e+003,1.112314e+003
3.236180e+003,1.084990e+003
3.238108e+003,1.031255e+003
3.240037e+003,1.043110e+003
3.241965e+003,1.076786e+003
3.243894e+003,1.087618e+003
3.245822e+003,1.090189e+003
3.247751e+003,1.092217e+003
3.249679e+003,1.089949e+003
3.251608e+003,1.074294e+003
3.253536e+003,1.073633e+003
3.255465e+003,1.092868e+003
3.257393e+003,1.083385e+003
3.259322e+003,1.044273e+003
3.261250e+003,1.021409e+003
3.263178e+003,1.015551e+003
3.265107e+003,1.038137e+003
3.267035e+003,1.069411e+003
3.268964e+003,1.096100e+003
3.270892e+003,1.105388e+003
3.272821e+003,1.080724e+003
3.274749e+003,1.051945e+003
3.276678e+003,1.023675e+003
3.278606e+003,1.005710e+003
3.280535e+003,9.968565e+002
3.282463e+003,1.019820e+003
3.284392e+003,1.066802e+003
3.286320e+003,1.060420e+003
3.288249e+003,1.028399e+003
3.290177e+003,1.055170e+003
3.292105e+003,1.092469e+003
3.294034e+003,1.087297e+003
3.295962e+003,1.071321e+003
3.297891e+003,1.060069e+003
3.299819e+003,1.050638e+003
3.301748e+003,1.043897e+003
3.303676e+003,1.027268e+003
3.305605e+003,9.913246e+002
3.307533e+003,1.009468e+003
3.309462e+003,1.066384e+003
3.311390e+003,1.059556e+003
3.313319e+003,1.024647e+003
3.315247e+003,1.013972e+003
3.317176e+003,1.023491e+003
3.319104e+003,1.069988e+003
3.321032e+003,1.095312e+003
3.322961e+003,1.048604e+003
3.324889e+003,1.030294e+003
3.326818e+003,1.060617e+003
3.328746e+003,1.059545e+003
3.330675e+003,1.024330e+003
3.332603e+003,1.016934e+003
3.334532e+003,1.025140e+003
3.336460e+003,1.005775e+003
3.338389e+003,9.874919e+002
3.340317e+003,1.012271e+003
3.342246e+003,1.032080e+003
3.344174e+003,1.016123e+003
3.346103e+003,9.996611e+002
3.348031e+003,9.845994e+002
3.349959e+003,1.003620e+003
3.351888e+003,1.061912e+003
3.353816e+003,1.085879e+003
3.355745e+003,1.081892e+003
3.357673e+003,1.068324e+003
3.359602e+003,1.047951e+003
3.361530e+003,1.009474e+003
3.363459e+003,9.892123e+002
3.365387e+003,1.028033e+003
3.367316e+003,1.047943e+003
3.369244e+003,1.017125e+003
3.371173e+003,1.016967e+003
3.373101e+003,1.050816e+003
3.375030e+003,1.050448e+003
3.376958e+003,1.030294e+003
3.378886e+003,1.053420e+003
3.380815e+003,1.085544e+003
3.382743e+003,1.085984e+003
3.384672e+003,1.079481e+003
3.386600e+003,1.079531e+003
3.388529e+003,1.078647e+003
3.390457e+003,1.074851e+003
3.392386e+003,1.075307e+003
3.394314e+003,1.080650e+003
3.396243e+003,1.061639e+003
3.398171e+003,1.029798e+003
3.400100e+003,1.007810e+003
3.402028e+003,9.990914e+002
3.403957e+003,1.011996e+003
3.405885e+003,1.034518e+003
3.407813e+003,1.074777e+003
3.409742e+003,1.089485e+003
3.411670e+003,1.067787e+003
3.413599e+003,1.042065e+003
3.415527e+003,1.018957e+003
3.417456e+003,1.035368e+003
3.419384e+003,1.069147e+003
3.421313e+003,1.088870e+003
3.423241e+003,1.087719e+003
3.425170e+003,1.037802e+003
3.427098e+003,1.010773e+003
3.429027e+003,1.033114e+003
3.430955e+003,1.055517e+003
3.432884e+003,1.072337e+003
3.434812e+003,1.083729e+003
3.436740e+003,1.085182e+003
3.438669e+003,1.044054e+003
3.440597e+003,1.002710e+003
3.442526e+003,1.011438e+003
3.444454e+003,1.031239e+003
3.446383e+003,1.046697e+003
3.448311e+003,1.063477e+003
3.450240e+003,1.089451e+003
3.452168e+003,1.065161e+003
3.454097e+003,1.003966e+003
3.456025e+003,1.014079e+003
3.457954e+003,1.045613e+003
3.459882e+003,1.004469e+003
3.461811e+003,9.835440e+002
3.463739e+003,1.056611e+003
3.465667e+003,1.105222e+003
3.467596e+003,1.075235e+003
3.469524e+003,1.070147e+003
3.471453e+003,1.085903e+003
3.473381e+003,1.068525e+003
3.475310e+003,1.040264e+003
3.477238e+003,1.057904e+003
3.479167e+003,1.074943e+003
3.481095e+003,1.046599e+003
3.483024e+003,1.029789e+003
3.484952e+003,1.050961e+003
3.486881e+003,1.037337e+003
3.488809e+003,9.888732e+002
3.490738e+003,9.983189e+002
3.492666e+003,1.039655e+003
3.494594e+003,1.051118e+003
3.496523e+003,1.050976e+003
3.498451e+003,1.047727e+003
3.500380e+003,1.050585e+003
3.502308e+003,1.065001e+003
3.504237e+003,1.064284e+003
3.506165e+003,1.044783e+003
3.508094e+003,1.059539e+003
3.510022e+003,1.083456e+003
3.511951e+003,1.035499e+003
3.513879e+003,9.937415e+002
3.515808e+003,1.057486e+003
3.517736e+003,1.082476e+003
3.519665e+003,1.019231e+003
3.521593e+003,9.779122e+002
3.523521e+003,9.689933e+002
3.525450e+003,1.003761e+003
3.527378e+003,1.052597e+003
3.529307e+003,1.053469e+003
3.531235e+003,1.044999e+003
3.533164e+003,1.058631e+003
3.535092e+003,1.065858e+003
3.537021e+003,1.054071e+003
3.538949e+003,1.057782e+003
3.540878e+003,1.072819e+003
3.542806e+003,1.027450e+003
3.544735e+003,9.752481e+002
3.546663e+003,1.033932e+003
3.548592e+003,1.075815e+003
3.550520e+003,1.005499e+003
3.552448e+003,9.695751e+002
3.554377e+003,1.010076e+003
3.556305e+003,1.034454e+003
3.558234e+003,1.042172e+003
3.560162e+003,1.041127e+003
3.562091e+003,1.036719e+003
3.564019e+003,1.032089e+003
3.565948e+003,1.033613e+003
3.567876e+003,1.050870e+003
3.569805e+003,1.059166e+003
3.571733e+003,1.056741e+003
3.573662e+003,1.050020e+003
3.575590e+003,1.041739e+003
3.577519e+003,1.037611e+003
3.579447e+003,1.035631e+003
3.581376e+003,1.032022e+003
3.583304e+003,1.035480e+003
3.585233e+003,1.053002e+003
3.587161e+003,1.045167e+003
3.589090e+003,1.015207e+003
3.591018e+003,1.016531e+003
3.592947e+003,1.035057e+003
3.594875e+003,1.061679e+003
3.596803e+003,1.073777e+003
3.598732e+003,1.046903e+003
3.600660e+003,1.030249e+003
3.602589e+003,1.028848e+003
3.604517e+003,1.038852e+003
3.606446e+003,1.039502e+003
3.608374e+003,9.170186e+002
3.610303e+003,8.262430e+002
3.612231e+003,9.434587e+002
3.614160e+003,1.034329e+003
3.616088e+003,1.043302e+003
3.618017e+003,1.041368e+003
3.619945e+003,1.034645e+003
3.621874e+003,1.008101e+003
3.623802e+003,9.861418e+002
3.625730e+003,1.007840e+003
3.627659e+003,1.025332e+003
3.629587e+003,1.012661e+003
3.631516e+003,1.013408e+003
3.633444e+003,1.032831e+003
3.635373e+003,1.040135e+003
3.637301e+003,1.037236e+003
3.639230e+003,1.023978e+003
3.641158e+003,1.011184e+003
3.643087e+003,1.003288e+003
3.645015e+003,1.007603e+003
3.646944e+003,1.026617e+003
3.648872e+003,1.026835e+003
3.650801e+003,1.015351e+003
3.652729e+003,1.019912e+003
3.654657e+003,1.027776e+003
3.656586e+003,1.028348e+003
3.658514e+003,1.029973e+003
3.660443e+003,1.035457e+003
3.662371e+003,1.029205e+003
3.664300e+003,1.014545e+003
3.666228e+003,1.008094e+003
3.668157e+003,1.007609e+003
3.670085e+003,1.016952e+003
3.672014e+003,1.016603e+003
3.673942e+003,9.977916e+002
3.675871e+003,9.999253e+002
3.677799e+003,1.020861e+003
3.679728e+003,1.017740e+003
3.681656e+003,1.005594e+003
3.683584e+003,1.007717e+003
3.685513e+003,9.946818e+002
3.687441e+003,9.457003e+002
3.689370e+003,9.561973e+002
3.691298e+003,1.026715e+003
3.693227e+003,1.037889e+003
3.695155e+003,1.022513e+003
3.697084e+003,1.030094e+003
3.699012e+003,1.019547e+003
3.700941e+003,9.605084e+002
3.702869e+003,9.594995e+002
3.704798e+003,1.022013e+003
3.706726e+003,1.036754e+003
3.708655e+003,1.029232e+003
3.710583e+003,1.037382e+003
3.712511e+003,1.037950e+003
3.714440e+003,1.017908e+003
3.716368e+003,1.000953e+003
3.718297e+003,9.902343e+002
3.720225e+003,9.943627e+002
3.722154e+003,1.002726e+003
3.724082e+003,1.000336e+003
3.726011e+003,9.964015e+002
3.727939e+003,9.952341e+002
3.729868e+003,9.933536e+002
3.731796e+003,9.889516e+002
3.733725e+003,9.565428e+002
3.735653e+003,9.298788e+002
3.737582e+003,9.663753e+002
3.739510e+003,9.940854e+002
3.741438e+003,9.806013e+002
3.743367e+003,9.809344e+002
3.745295e+003,9.960316e+002
3.747224e+003,9.983064e+002
3.749152e+003,9.977784e+002
3.751081e+003,1.009796e+003
3.753009e+003,1.013314e+003
3.754938e+003,9.984553e+002
3.756866e+003,9.956266e+002
3.758795e+003,1.002729e+003
3.760723e+003,1.002205e+003
3.762652e+003,9.989429e+002
3.764580e+003,1.001234e+003
3.766509e+003,9.929633e+002
3.768437e+003,9.677582e+002
3.770365e+003,9.671705e+002
3.772294e+003,9.813531e+002
3.774222e+003,9.742773e+002
3.776151e+003,9.643159e+002
3.778079e+003,9.606506e+002
3.780008e+003,9.698690e+002
3.781936e+003,9.927947e+002
3.783865e+003,1.003892e+003
3.785793e+003,1.004528e+003
3.787722e+003,9.957841e+002
3.789650e+003,9.823415e+002
3.791579e+003,9.561305e+002
3.793507e+003,9.706594e+002
3.795436e+003,1.022545e+003
3.797364e+003,1.011145e+003
3.799292e+003,9.802738e+002
3.801221e+003,9.913448e+002
3.803149e+003,1.000200e+003
3.805078e+003,9.902350e+002
3.807006e+003,9.848779e+002
3.808935e+003,9.821485e+002
3.810863e+003,9.641780e+002
3.812792e+003,9.475222e+002
3.814720e+003,9.467859e+002
3.816649e+003,9.539529e+002
3.818577e+003,9.707496e+002
3.820506e+003,9.579922e+002
3.822434e+003,9.370064e+002
3.824363e+003,9.580356e+002
3.826291e+003,9.794816e+002
3.828219e+003,9.800292e+002
3.830148e+003,9.772997e+002
3.832076e+003,9.737599e+002
3.834005e+003,9.720263e+002
3.835933e+003,9.688276e+002
3.837862e+003,9.552328e+002
3.839790e+003,9.517634e+002
3.841719e+003,9.641874e+002
3.843647e+003,9.663472e+002
3.845576e+003,9.618166e+002
3.847504e+003,9.684050e+002
3.849433e+003,9.708804e+002
3.851361e+003,9.519013e+002
3.853290e+003,9.444947e+002
3.855218e+003,9.509854e+002
3.857146e+003,9.656343e+002
3.859075e+003,9.768667e+002
3.861003e+003,9.684733e+002
3.862932e+003,9.530371e+002
3.864860e+003,9.296540e+002
3.866789e+003,9.288901e+002
3.868717e+003,9.446559e+002
3.870646e+003,9.580773e+002
3.872574e+003,9.689227e+002
3.874503e+003,9.809673e+002
3.876431e+003,9.724066e+002
3.878360e+003,9.438141e+002
3.880288e+003,9.479945e+002
3.882217e+003,9.592612e+002
3.884145e+003,9.397056e+002
3.886073e+003,9.282034e+002
3.888002e+003,9.372440e+002
3.889930e+003,9.463412e+002
3.891859e+003,9.538811e+002
3.893787e+003,9.610764e+002
3.895716e+003,9.576788e+002
3.897644e+003,9.309377e+002
3.899573e+003,9.321733e+002
3.901501e+003,9.606865e+002
3.903430e+003,9.653400e+002
3.905358e+003,9.584593e+002
3.907287e+003,9.474663e+002
3.909215e+003,9.409561e+002
3.911144e+003,9.401817e+002
3.913072e+003,9.377229e+002
3.915000e+003,9.329401e+002
3.916929e+003,9.188463e+002
3.918857e+003,9.172340e+002
3.920786e+003,9.449036e+002
3.922714e+003,9.538038e+002
3.924643e+003,9.456940e+002
3.926571e+003,9.270906e+002
3.928500e+003,9.108269e+002
3.930428e+003,9.017168e+002
3.932357e+003,9.104215e+002
3.934285e+003,9.337405e+002
3.936214e+003,9.430291e+002
3.938142e+003,9.418357e+002
3.940071e+003,9.224788e+002
3.941999e+003,9.239121e+002
3.943927e+003,9.577721e+002
3.945856e+003,9.469160e+002
3.947784e+003,9.224076e+002
3.949713e+003,9.359747e+002
3.951641e+003,9.448917e+002
3.953570e+003,9.380548e+002
3.955498e+003,9.008220e+002
3.957427e+003,8.580798e+002
3.959355e+003,8.802605e+002
3.961284e+003,9.153491e+002
3.963212e+003,9.455370e+002
3.965141e+003,9.534637e+002
3.967069e+003,9.412191e+002
3.968998e+003,9.158024e+002
3.970926e+003,8.965184e+002
3.972854e+003,8.955173e+002
3.974783e+003,9.088447e+002
3.976711e+003,9.323567e+002
3.978640e+003,9.551517e+002
3.980568e+003,9.540252e+002
3.982497e+003,8.839341e+002
3.984425e+003,8.604507e+002
3.986354e+003,9.074304e+002
3.988282e+003,9.141483e+002
3.990211e+003,9.076174e+002
3.992139e+003,9.260584e+002
3.994068e+003,9.325278e+002
3.995996e+003,9.186707e+002
3.997925e+003,9.095974e+002
3.999853e+003,9.062640e+002
4.001781e+003,9.138515e+002
4.003710e+003,9.141436e+002
4.005638e+003,9.010295e+002
4.007567e+003,8.964643e+002
4.009495e+003,8.957235e+002
4.011424e+003,8.822924e+002
4.013352e+003,8.745308e+002
4.015281e+003,8.815388e+002
4.017209e+003,8.980176e+002
4.019138e+003,9.144235e+002
4.021066e+003,9.082039e+002
4.022995e+003,8.913326e+002
4.024923e+003,8.650125e+002
4.026852e+003,8.747858e+002
4.028780e+003,9.049782e+002
4.030708e+003,8.845136e+002
4.032637e+003,8.688092e+002
4.034565e+003,8.915702e+002
4.036494e+003,9.053627e+002
4.038422e+003,9.083821e+002
4.040351e+003,9.104027e+002
4.042279e+003,9.089562e+002
4.044208e+003,9.004514e+002
4.046136e+003,8.916895e+002
4.048065e+003,8.853683e+002
4.049993e+003,8.982321e+002
4.051922e+003,8.993921e+002
4.053850e+003,8.629019e+002
4.055779e+003,8.526865e+002
4.057707e+003,8.675264e+002
4.059635e+003,8.718038e+002
4.061564e+003,8.747486e+002
4.063492e+003,8.834944e+002
4.065421e+003,8.849838e+002
4.067349e+003,8.801297e+002
4.069278e+003,8.844111e+002
4.071206e+003,8.868262e+002
4.073135e+003,8.784621e+002
4.075063e+003,8.669853e+002
4.076992e+003,8.554911e+002
4.078920e+003,8.534016e+002
4.080849e+003,8.586071e+002
4.082777e+003,8.723538e+002
4.084706e+003,8.807442e+002
4.086634e+003,8.836168e+002
4.088563e+003,8.851699e+002
4.090491e+003,8.847903e+002
4.092419e+003,8.814825e+002
4.094348e+003,8.845721e+002
4.096276e+003,8.903434e+002
4.098205e+003,8.744436e+002
4.100133e+003,8.625472e+002
4.102062e+003,8.729822e+002
4.103990e+003,8.659827e+002
4.105919e+003,8.481375e+002
4.107847e+003,8.504866e+002
4.109776e+003,8.555109e+002
4.111704e+003,8.520883e+002
4.113633e+003,8.582497e+002
4.115561e+003,8.670885e+002
4.117490e+003,8.526892e+002
4.119418e+003,8.566714e+002
4.121347e+003,9.005859e+002
4.123275e+003,8.882897e+002
4.125204e+003,8.515417e+002
4.127132e+003,8.629252e+002
4.129061e+003,8.747184e+002
4.130989e+003,8.729076e+002
4.132917e+003,8.691995e+002
4.134846e+003,8.639868e+002
4.136774e+003,8.555892e+002
4.138703e+003,8.483851e+002
4.140631e+003,8.433594e+002
4.142560e+003,8.378136e+002
4.144488e+003,8.409118e+002
4.146417e+003,8.774263e+002
4.148345e+003,8.873388e+002
4.150273e+003,8.621115e+002
4.152202e+003,8.437432e+002
4.154130e+003,8.323107e+002
4.156059e+003,8.284379e+002
4.157987e+003,8.312377e+002
4.159916e+003,8.392579e+002
4.161844e+003,8.470868e+002
4.163773e+003,8.514970e+002
4.165701e+003,8.481815e+002
4.167630e+003,8.497907e+002
4.169558e+003,8.541898e+002
4.171487e+003,8.534706e+002
4.173415e+003,8.499832e+002
4.175344e+003,8.445188e+002
4.177272e+003,8.372921e+002
4.179201e+003,8.341737e+002
4.181129e+003,8.507393e+002
4.183058e+003,8.646633e+002
4.184986e+003,8.701863e+002
4.186915e+003,8.510840e+002
4.188843e+003,8.304518e+002
4.190771e+003,8.399189e+002
4.192700e+003,8.403619e+002
4.194628e+003,8.274703e+002
4.196557e+003,8.438561e+002
4.198485e+003,8.577970e+002
4.200414e+003,8.425310e+002
4.202342e+003,8.332380e+002
4.204271e+003,8.317079e+002
4.206199e+003,8.294423e+002
4.208127e+003,8.267432e+002
4.210056e+003,8.228618e+002
4.211984e+003,8.235330e+002
4.213913e+003,8.259716e+002
4.215841e+003,8.246505e+002
4.217770e+003,8.222485e+002
4.219698e+003,8.196470e+002
4.221627e+003,8.117406e+002
4.223555e+003,8.108271e+002
4.225484e+003,8.407217e+002
4.227412e+003,8.575186e+002
4.229341e+003,8.561579e+002
4.231269e+003,8.382404e+002
4.233198e+003,8.237145e+002
4.235126e+003,8.282645e+002
4.237055e+003,8.368952e+002
4.238983e+003,8.436006e+002
4.240912e+003,8.295998e+002
4.242840e+003,8.248182e+002
4.244769e+003,8.425622e+002
4.246697e+003,8.280106e+002
4.248625e+003,8.035300e+002
4.250554e+003,7.968480e+002
