1.159199e+002,1.256879e+003
1.178484e+002,1.345800e+003
1.197769e+002,1.421011e+003
1.217053e+002,1.482099e+003
1.236338e+002,1.494652e+003
1.255623e+002,1.436460e+003
1.274907e+002,1.342474e+003
1.294192e+002,1.245761e+003
1.313477e+002,1.130653e+003
1.332761e+002,1.031458e+003
1.352046e+002,9.578831e+002
1.371331e+002,9.126843e+002
1.390615e+002,8.836841e+002
1.409900e+002,8.736519e+002
1.429185e+002,8.783439e+002
1.448469e+002,8.946421e+002
1.467754e+002,9.313290e+002
1.487039e+002,9.689307e+002
1.506323e+002,1.006527e+003
1.525608e+002,1.051608e+003
1.544893e+002,1.062495e+003
1.564177e+002,1.032649e+003
1.583462e+002,9.692531e+002
1.602747e+002,8.916663e+002
1.622031e+002,7.878798e+002
1.641316e+002,6.862322e+002
1.660601e+002,5.991797e+002
1.679885e+002,5.227733e+002
1.699170e+002,4.652086e+002
1.718455e+002,4.271444e+002
1.737739e+002,4.092036e+002
1.757024e+002,3.981167e+002
1.776309e+002,3.993615e+002
1.795593e+002,4.037457e+002
1.814878e+002,4.035914e+002
1.834163e+002,3.969446e+002
1.853447e+002,3.878252e+002
1.872732e+002,3.759149e+002
1.892017e+002,3.615940e+002
1.911301e+002,3.479096e+002
1.930586e+002,3.347722e+002
1.949871e+002,3.227229e+002
1.969155e+002,3.128027e+002
1.988440e+002,3.063686e+002
2.007725e+002,3.003591e+002
2.027009e+002,2.933945e+002
2.046294e+002,2.850929e+002
2.065579e+002,2.783910e+002
2.084864e+002,2.728608e+002
2.104148e+002,2.688933e+002
2.123433e+002,2.676295e+002
2.142718e+002,2.699395e+002
2.162002e+002,2.733450e+002
2.181287e+002,2.767253e+002
2.200572e+002,2.800208e+002
2.219856e+002,2.831442e+002
2.239141e+002,2.873810e+002
2.258426e+002,2.914179e+002
2.277710e+002,2.925057e+002
2.296995e+002,2.889997e+002
2.316280e+002,2.845303e+002
2.335564e+002,2.808628e+002
2.354849e+002,2.786987e+002
2.374134e+002,2.767046e+002
2.393418e+002,2.748327e+002
2.412703e+002,2.731110e+002
2.431988e+002,2.715450e+002
2.451272e+002,2.685132e+002
2.470557e+002,2.667680e+002
2.489842e+002,2.681286e+002
2.509126e+002,2.744246e+002
2.528411e+002,2.797838e+002
2.547696e+002,2.846364e+002
2.566980e+002,2.882382e+002
2.586265e+002,2.877635e+002
2.605550e+002,2.782815e+002
2.624834e+002,2.683380e+002
2.644119e+002,2.627880e+002
2.663404e+002,2.624614e+002
2.682688e+002,2.623336e+002
2.701973e+002,2.597588e+002
2.721258e+002,2.557315e+002
2.740542e+002,2.559462e+002
2.759827e+002,2.631981e+002
2.779112e+002,2.719703e+002
2.798396e+002,2.798318e+002
2.817681e+002,2.871552e+002
2.836966e+002,2.921610e+002
2.856250e+002,2.950670e+002
2.875535e+002,2.958321e+002
2.894820e+002,2.930666e+002
2.914104e+002,2.851481e+002
2.933389e+002,2.761151e+002
2.952674e+002,2.674656e+002
2.971958e+002,2.587732e+002
2.991243e+002,2.523426e+002
3.010528e+002,2.476033e+002
3.029813e+002,2.450976e+002
3.049097e+002,2.464991e+002
3.068382e+002,2.547957e+002
3.087667e+002,2.632786e+002
3.106951e+002,2.689630e+002
3.126236e+002,2.711271e+002
3.145521e+002,2.721741e+002
3.164805e+002,2.714208e+002
3.184090e+002,2.699253e+002
3.203375e+002,2.697044e+002
3.222659e+002,2.703255e+002
3.241944e+002,2.731342e+002
3.261229e+002,2.787828e+002
3.280513e+002,2.890040e+002
3.299798e+002,2.977652e+002
3.319083e+002,3.043838e+002
3.338367e+002,3.096003e+002
3.357652e+002,3.150039e+002
3.376937e+002,3.225132e+002
3.396221e+002,3.264973e+002
3.415506e+002,3.247306e+002
3.434791e+002,3.157778e+002
3.454075e+002,3.074068e+002
3.473360e+002,2.974142e+002
3.492645e+002,2.895139e+002
3.511929e+002,2.870554e+002
3.531214e+002,2.943181e+002
3.550499e+002,2.989666e+002
3.569783e+002,2.969506e+002
3.589068e+002,2.883291e+002
3.608353e+002,2.815422e+002
3.627637e+002,2.758193e+002
3.646922e+002,2.727150e+002
3.666207e+002,2.729760e+002
3.685491e+002,2.783095e+002
3.704776e+002,2.837522e+002
3.724061e+002,2.880233e+002
3.743345e+002,2.918304e+002
3.762630e+002,2.974228e+002
3.781915e+002,3.060368e+002
3.801199e+002,3.150273e+002
3.820484e+002,3.237924e+002
3.839769e+002,3.338363e+002
3.859053e+002,3.389573e+002
3.878338e+002,3.364740e+002
3.897623e+002,3.293510e+002
3.916907e+002,3.220747e+002
3.936192e+002,3.121450e+002
3.955477e+002,3.062792e+002
3.974761e+002,3.080793e+002
3.994046e+002,3.198579e+002
4.013331e+002,3.260182e+002
4.032615e+002,3.196705e+002
4.051900e+002,3.126553e+002
4.071185e+002,3.153511e+002
4.090469e+002,3.310900e+002
4.109754e+002,3.465476e+002
4.129039e+002,3.606372e+002
4.148323e+002,3.727181e+002
4.167608e+002,3.782524e+002
4.186893e+002,3.727608e+002
4.206177e+002,3.650963e+002
4.225462e+002,3.592377e+002
4.244747e+002,3.554724e+002
4.264032e+002,3.506404e+002
4.283316e+002,3.415715e+002
4.302601e+002,3.317022e+002
4.321886e+002,3.271532e+002
4.341170e+002,3.288872e+002
4.360455e+002,3.333968e+002
4.379740e+002,3.396095e+002
4.399024e+002,3.474399e+002
4.418309e+002,3.584339e+002
4.437594e+002,3.794548e+002
4.456878e+002,3.991477e+002
4.476163e+002,4.080450e+002
4.495448e+002,4.040676e+002
4.514732e+002,3.987936e+002
4.534017e+002,3.940967e+002
4.553302e+002,3.898211e+002
4.572586e+002,3.857346e+002
4.591871e+002,3.812165e+002
4.611156e+002,3.776367e+002
4.630440e+002,3.760773e+002
4.649725e+002,3.765149e+002
4.669010e+002,3.762527e+002
4.688294e+002,3.731233e+002
4.707579e+002,3.702175e+002
4.726864e+002,3.698934e+002
4.746148e+002,3.716638e+002
4.765433e+002,3.769089e+002
4.784718e+002,3.883754e+002
4.804002e+002,4.035020e+002
4.823287e+002,4.156672e+002
4.842572e+002,4.241085e+002
4.861856e+002,4.299599e+002
4.881141e+002,4.334643e+002
4.900426e+002,4.337951e+002
4.919710e+002,4.349312e+002
4.938995e+002,4.369520e+002
4.958280e+002,4.399299e+002
4.977564e+002,4.445200e+002
4.996849e+002,4.522345e+002
5.016134e+002,4.572316e+002
5.035418e+002,4.575098e+002
5.054703e+002,4.539224e+002
5.073988e+002,4.498524e+002
5.093272e+002,4.399411e+002
5.112557e+002,4.343781e+002
5.131842e+002,4.404552e+002
5.151127e+002,4.572356e+002
5.170411e+002,4.690020e+002
5.189696e+002,4.735938e+002
5.208981e+002,4.721885e+002
5.228265e+002,4.639337e+002
5.247550e+002,4.436962e+002
5.266835e+002,4.273037e+002
5.286119e+002,4.175990e+002
5.305404e+002,4.133746e+002
5.324689e+002,4.126382e+002
5.343973e+002,4.190685e+002
5.363258e+002,4.247864e+002
5.382543e+002,4.266622e+002
5.401827e+002,4.241233e+002
5.421112e+002,4.233930e+002
5.440397e+002,4.276705e+002
5.459681e+002,4.307980e+002
5.478966e+002,4.281449e+002
5.498251e+002,4.164347e+002
5.517535e+002,4.102697e+002
5.536820e+002,4.117928e+002
5.556105e+002,4.193589e+002
5.575389e+002,4.317206e+002
5.594674e+002,4.530227e+002
5.613959e+002,4.709272e+002
5.633243e+002,4.813544e+002
5.652528e+002,4.855464e+002
5.671813e+002,4.866105e+002
5.691097e+002,4.801530e+002
5.710382e+002,4.741918e+002
5.729667e+002,4.702279e+002
5.748951e+002,4.679323e+002
5.768236e+002,4.726323e+002
5.787521e+002,4.878495e+002
5.806805e+002,5.086888e+002
5.826090e+002,5.334117e+002
5.845375e+002,5.731043e+002
5.864659e+002,5.932363e+002
5.883944e+002,5.853220e+002
5.903229e+002,5.571133e+002
5.922513e+002,5.226287e+002
5.941798e+002,4.755007e+002
5.961083e+002,4.357771e+002
5.980367e+002,4.108171e+002
5.999652e+002,3.993957e+002
6.018937e+002,3.943466e+002
6.038221e+002,3.952608e+002
6.057506e+002,4.023591e+002
6.076791e+002,4.181483e+002
6.096075e+002,4.425071e+002
6.115360e+002,4.666404e+002
6.134645e+002,4.953148e+002
6.153929e+002,5.183770e+002
6.173214e+002,5.289404e+002
6.192499e+002,5.242826e+002
6.211783e+002,5.109477e+002
6.231068e+002,4.815120e+002
6.250353e+002,4.469366e+002
6.269637e+002,4.243321e+002
6.288922e+002,4.167399e+002
6.308207e+002,4.123005e+002
6.327491e+002,4.071844e+002
6.346776e+002,4.018409e+002
6.366061e+002,3.988098e+002
6.385345e+002,3.981232e+002
6.404630e+002,3.992121e+002
6.423915e+002,4.025519e+002
6.443199e+002,4.078539e+002
6.462484e+002,4.131323e+002
6.481769e+002,4.207090e+002
6.501053e+002,4.256816e+002
6.520338e+002,4.248156e+002
6.539623e+002,4.147591e+002
6.558907e+002,4.090569e+002
6.578192e+002,4.108289e+002
6.597477e+002,4.150197e+002
6.616761e+002,4.160838e+002
6.636046e+002,4.127409e+002
6.655331e+002,4.125172e+002
6.674615e+002,4.191756e+002
6.693900e+002,4.294629e+002
6.713185e+002,4.395409e+002
6.732469e+002,4.546781e+002
6.751754e+002,4.633242e+002
6.771039e+002,4.590132e+002
6.790323e+002,4.471822e+002
6.809608e+002,4.425935e+002
6.828893e+002,4.480960e+002
6.848177e+002,4.560580e+002
6.867462e+002,4.626284e+002
6.886747e+002,4.679037e+002
6.906031e+002,4.777548e+002
6.925316e+002,4.995883e+002
6.944601e+002,5.188059e+002
6.963885e+002,5.302273e+002
6.983170e+002,5.338745e+002
7.002455e+002,5.301300e+002
7.021740e+002,5.124492e+002
7.041024e+002,4.933545e+002
7.060309e+002,4.805668e+002
7.079594e+002,4.768173e+002
7.098878e+002,4.703553e+002
7.118163e+002,4.564454e+002
7.137448e+002,4.424600e+002
7.156732e+002,4.345208e+002
7.176017e+002,4.319240e+002
7.195302e+002,4.357475e+002
7.214586e+002,4.440762e+002
7.233871e+002,4.607900e+002
7.253156e+002,4.918024e+002
7.272440e+002,5.525821e+002
7.291725e+002,6.019926e+002
7.311010e+002,6.308265e+002
7.330294e+002,6.472971e+002
7.349579e+002,6.605135e+002
7.368864e+002,6.555212e+002
7.388149e+002,6.809063e+002
7.407433e+002,7.806567e+002
7.426718e+002,9.202537e+002
7.446003e+002,1.024829e+003
7.465287e+002,1.107305e+003
7.484572e+002,1.132651e+003
7.503857e+002,1.062951e+003
7.523141e+002,9.220986e+002
7.542426e+002,8.153167e+002
7.561711e+002,7.554251e+002
7.580995e+002,7.084092e+002
7.600280e+002,6.580565e+002
7.619565e+002,6.070961e+002
7.638849e+002,5.742563e+002
7.658134e+002,5.793388e+002
7.677419e+002,5.847270e+002
7.696703e+002,5.793870e+002
7.715988e+002,5.627049e+002
7.735273e+002,5.429954e+002
7.754557e+002,5.147129e+002
7.773842e+002,4.895471e+002
7.793127e+002,4.727780e+002
7.812411e+002,4.640175e+002
7.831696e+002,4.611949e+002
7.850981e+002,4.682895e+002
7.870266e+002,4.779874e+002
7.889550e+002,4.880376e+002
7.908835e+002,4.987419e+002
7.928120e+002,5.079925e+002
7.947404e+002,5.196772e+002
7.966689e+002,5.266853e+002
7.985974e+002,5.228741e+002
8.005258e+002,5.080989e+002
8.024543e+002,4.954348e+002
8.043828e+002,4.877463e+002
8.063112e+002,4.817168e+002
8.082397e+002,4.748155e+002
8.101682e+002,4.650899e+002
8.120966e+002,4.616532e+002
8.140251e+002,4.687312e+002
8.159536e+002,4.789558e+002
8.178820e+002,4.864077e+002
8.198105e+002,4.909519e+002
8.217390e+002,5.008315e+002
8.236674e+002,5.223357e+002
8.255959e+002,5.468139e+002
8.275244e+002,5.699637e+002
8.294528e+002,5.926932e+002
8.313813e+002,6.113359e+002
8.333098e+002,6.290587e+002
8.352382e+002,6.405494e+002
8.371667e+002,6.382323e+002
8.390952e+002,6.217880e+002
8.410236e+002,6.085656e+002
8.429521e+002,5.989886e+002
8.448806e+002,5.965592e+002
8.468090e+002,6.043151e+002
8.487375e+002,6.255206e+002
8.506660e+002,6.492634e+002
8.525944e+002,6.719571e+002
8.545229e+002,6.991567e+002
8.564514e+002,7.358067e+002
8.583798e+002,7.815979e+002
8.603083e+002,8.342884e+002
8.622368e+002,9.196298e+002
8.641652e+002,9.875467e+002
8.660937e+002,1.006430e+003
8.680222e+002,9.702203e+002
8.699506e+002,9.101887e+002
8.718791e+002,8.024164e+002
8.738076e+002,6.945430e+002
8.757360e+002,6.172226e+002
8.776645e+002,5.732835e+002
8.795930e+002,5.405596e+002
8.815214e+002,5.210996e+002
8.834499e+002,5.104207e+002
8.853784e+002,5.074500e+002
8.873068e+002,5.122715e+002
8.892353e+002,5.163727e+002
8.911638e+002,5.188472e+002
8.930922e+002,5.199039e+002
8.950207e+002,5.186621e+002
8.969492e+002,5.144463e+002
8.988776e+002,5.121462e+002
9.008061e+002,5.125728e+002
9.027346e+002,5.138553e+002
9.046630e+002,5.149020e+002
9.065915e+002,5.160854e+002
9.085200e+002,5.194662e+002
9.104484e+002,5.287939e+002
9.123769e+002,5.365109e+002
9.143054e+002,5.397211e+002
9.162338e+002,5.387852e+002
9.181623e+002,5.371314e+002
9.200908e+002,5.326475e+002
9.220192e+002,5.297388e+002
9.239477e+002,5.303272e+002
9.258762e+002,5.334482e+002
9.278046e+002,5.361740e+002
9.297331e+002,5.389994e+002
9.316616e+002,5.393208e+002
9.335900e+002,5.332463e+002
9.355185e+002,5.236646e+002
9.374470e+002,5.191551e+002
9.393754e+002,5.226910e+002
9.413039e+002,5.280637e+002
9.432324e+002,5.350884e+002
9.451608e+002,5.434673e+002
9.470893e+002,5.533839e+002
9.490178e+002,5.674962e+002
9.509462e+002,5.767122e+002
9.528747e+002,5.745291e+002
9.548032e+002,5.684743e+002
9.567316e+002,5.675795e+002
9.586601e+002,5.743387e+002
9.605886e+002,5.777145e+002
9.625170e+002,5.712892e+002
9.644455e+002,5.637032e+002
9.663740e+002,5.627408e+002
9.683024e+002,5.714025e+002
9.702309e+002,5.796557e+002
9.721594e+002,5.855020e+002
9.740878e+002,5.923852e+002
9.760163e+002,6.051160e+002
9.779448e+002,6.229614e+002
9.798733e+002,6.338290e+002
9.818018e+002,6.294801e+002
9.837302e+002,6.251824e+002
9.856587e+002,6.210386e+002
9.875872e+002,6.164404e+002
9.895156e+002,6.437779e+002
9.914441e+002,7.054287e+002
9.933726e+002,7.941942e+002
9.953010e+002,9.460621e+002
9.972295e+002,1.128261e+003
9.991580e+002,1.224631e+003
1.001086e+003,1.223007e+003
1.003015e+003,1.167142e+003
1.004943e+003,1.026752e+003
1.006872e+003,8.533734e+002
1.008800e+003,7.278972e+002
1.010729e+003,6.626361e+002
1.012657e+003,6.185540e+002
1.014586e+003,5.934861e+002
1.016514e+003,5.808152e+002
1.018443e+003,5.749037e+002
1.020371e+003,5.798293e+002
1.022300e+003,5.817324e+002
1.024228e+003,5.783305e+002
1.026156e+003,5.735928e+002
1.028085e+003,5.691523e+002
1.030013e+003,5.652238e+002
1.031942e+003,5.655861e+002
1.033870e+003,5.745310e+002
1.035799e+003,5.830756e+002
1.037727e+003,5.869594e+002
1.039656e+003,5.864091e+002
1.041584e+003,5.856419e+002
1.043513e+003,5.804113e+002
1.045441e+003,5.798245e+002
1.047370e+003,5.875065e+002
1.049298e+003,6.010873e+002
1.051227e+003,6.156642e+002
1.053155e+003,6.329102e+002
1.055083e+003,6.470339e+002
1.057012e+003,6.544016e+002
1.058940e+003,6.593331e+002
1.060869e+003,6.667365e+002
1.062797e+003,6.775262e+002
1.064726e+003,6.842085e+002
1.066654e+003,6.850888e+002
1.068583e+003,6.811414e+002
1.070511e+003,6.715477e+002
1.072440e+003,6.556706e+002
1.074368e+003,6.401465e+002
1.076297e+003,6.216467e+002
1.078225e+003,6.075809e+002
1.080154e+003,6.010361e+002
1.082082e+003,6.015856e+002
1.084010e+003,6.064819e+002
1.085939e+003,6.164769e+002
1.087867e+003,6.295220e+002
1.089796e+003,6.482271e+002
1.091724e+003,6.679351e+002
1.093653e+003,6.823668e+002
1.095581e+003,6.888209e+002
1.097510e+003,6.973336e+002
1.099438e+003,7.063613e+002
1.101367e+003,7.194274e+002
1.103295e+003,7.419291e+002
1.105224e+003,7.753693e+002
1.107152e+003,8.000018e+002
1.109081e+003,8.254729e+002
1.111009e+003,8.332559e+002
1.112938e+003,8.059816e+002
1.114866e+003,7.569962e+002
1.116794e+003,7.165888e+002
1.118723e+003,6.862932e+002
1.120651e+003,6.614850e+002
1.122580e+003,6.392408e+002
1.124508e+003,6.224861e+002
1.126437e+003,6.163564e+002
1.128365e+003,6.257679e+002
1.130294e+003,6.306541e+002
1.132222e+003,6.205947e+002
1.134151e+003,6.155686e+002
1.136079e+003,6.317190e+002
1.138008e+003,6.672786e+002
1.139936e+003,6.897761e+002
1.141865e+003,6.934175e+002
1.143793e+003,6.925531e+002
1.145721e+003,6.861196e+002
1.147650e+003,6.795407e+002
1.149578e+003,6.832706e+002
1.151507e+003,7.012709e+002
1.153435e+003,7.113872e+002
1.155364e+003,7.036183e+002
1.157292e+003,6.902075e+002
1.159221e+003,6.778224e+002
1.161149e+003,6.665181e+002
1.163078e+003,6.581144e+002
1.165006e+003,6.552883e+002
1.166935e+003,6.525266e+002
1.168863e+003,6.478093e+002
1.170792e+003,6.419629e+002
1.172720e+003,6.372540e+002
1.174648e+003,6.337966e+002
1.176577e+003,6.304818e+002
1.178505e+003,6.235689e+002
1.180434e+003,6.190519e+002
1.182362e+003,6.242763e+002
1.184291e+003,6.386680e+002
1.186219e+003,6.466940e+002
1.188148e+003,6.380833e+002
1.190076e+003,6.343489e+002
1.192005e+003,6.472589e+002
1.193933e+003,6.719515e+002
1.195862e+003,6.923142e+002
1.197790e+003,7.105676e+002
1.199719e+003,7.204879e+002
1.201647e+003,7.179362e+002
1.203575e+003,7.092872e+002
1.205504e+003,6.976733e+002
1.207432e+003,6.816935e+002
1.209361e+003,6.750618e+002
1.211289e+003,6.748248e+002
1.213218e+003,6.876414e+002
1.215146e+003,7.169734e+002
1.217075e+003,7.618367e+002
1.219003e+003,8.292054e+002
1.220932e+003,9.361413e+002
1.222860e+003,1.003406e+003
1.224789e+003,9.907000e+002
1.226717e+003,9.440624e+002
1.228646e+003,8.862072e+002
1.230574e+003,8.136475e+002
1.232502e+003,7.624371e+002
1.234431e+003,7.411252e+002
1.236359e+003,7.324409e+002
1.238288e+003,7.395150e+002
1.240216e+003,7.548248e+002
1.242145e+003,7.636063e+002
1.244073e+003,7.664729e+002
1.246002e+003,7.621990e+002
1.247930e+003,7.457842e+002
1.249859e+003,7.270576e+002
1.251787e+003,7.120580e+002
1.253716e+003,7.002296e+002
1.255644e+003,6.882542e+002
1.257573e+003,6.725302e+002
1.259501e+003,6.640334e+002
1.261429e+003,6.701572e+002
1.263358e+003,6.838123e+002
1.265286e+003,6.993412e+002
1.267215e+003,7.178339e+002
1.269143e+003,7.296520e+002
1.271072e+003,7.298251e+002
1.273000e+003,7.265948e+002
1.274929e+003,7.201479e+002
1.276857e+003,7.125587e+002
1.278786e+003,7.106637e+002
1.280714e+003,7.222321e+002
1.282643e+003,7.288221e+002
1.284571e+003,7.284575e+002
1.286500e+003,7.246049e+002
1.288428e+003,7.171824e+002
1.290356e+003,7.070604e+002
1.292285e+003,7.045240e+002
1.294213e+003,7.100822e+002
1.296142e+003,7.224343e+002
1.298070e+003,7.411274e+002
1.299999e+003,7.665310e+002
1.301927e+003,8.045789e+002
1.303856e+003,8.569556e+002
1.305784e+003,8.884739e+002
1.307713e+003,8.787186e+002
1.309641e+003,8.672128e+002
1.311570e+003,8.678354e+002
1.313498e+003,8.797191e+002
1.315427e+003,9.007317e+002
1.317355e+003,9.332560e+002
1.319283e+003,9.705941e+002
1.321212e+003,1.004869e+003
1.323140e+003,1.050149e+003
1.325069e+003,1.130205e+003
1.326997e+003,1.238320e+003
1.328926e+003,1.300419e+003
1.330854e+003,1.311924e+003
1.332783e+003,1.290143e+003
1.334711e+003,1.198725e+003
1.336640e+003,1.102182e+003
1.338568e+003,1.056641e+003
1.340497e+003,1.060374e+003
1.342425e+003,1.114136e+003
1.344354e+003,1.250231e+003
1.346282e+003,1.376145e+003
1.348210e+003,1.494722e+003
1.350139e+003,1.559626e+003
1.352068e+003,1.496771e+003
1.353996e+003,1.297011e+003
1.355924e+003,1.114313e+003
1.357853e+003,9.573038e+002
1.359781e+003,8.398013e+002
1.361710e+003,7.781891e+002
1.363638e+003,7.547413e+002
1.365567e+003,7.349492e+002
1.367495e+003,7.171740e+002
1.369424e+003,7.082154e+002
1.371352e+003,7.140058e+002
1.373281e+003,7.224812e+002
1.375209e+003,7.304634e+002
1.377138e+003,7.370660e+002
1.379066e+003,7.384699e+002
1.380995e+003,7.296124e+002
1.382923e+003,7.252012e+002
1.384851e+003,7.279702e+002
1.386780e+003,7.331306e+002
1.388708e+003,7.396754e+002
1.390637e+003,7.461389e+002
1.392565e+003,7.465974e+002
1.394494e+003,7.379921e+002
1.396422e+003,7.333657e+002
1.398351e+003,7.363300e+002
1.400279e+003,7.442432e+002
1.402208e+003,7.533391e+002
1.404136e+003,7.654003e+002
1.406065e+003,7.878705e+002
1.407993e+003,8.214685e+002
1.409922e+003,8.642563e+002
1.411850e+003,9.351425e+002
1.413778e+003,9.972966e+002
1.415707e+003,1.028289e+003
1.417635e+003,1.028969e+003
1.419564e+003,1.002458e+003
1.421492e+003,9.299048e+002
1.423421e+003,8.676473e+002
1.425349e+003,8.252668e+002
1.427278e+003,7.968392e+002
1.429206e+003,7.791379e+002
1.431135e+003,7.718335e+002
1.433063e+003,7.703201e+002
1.434992e+003,7.766722e+002
1.436920e+003,7.855251e+002
1.438849e+003,7.977300e+002
1.440777e+003,8.112452e+002
1.442705e+003,8.254185e+002
1.444634e+003,8.403379e+002
1.446562e+003,8.538425e+002
1.448491e+003,8.752403e+002
1.450419e+003,8.801945e+002
1.452348e+003,8.519230e+002
1.454276e+003,8.157247e+002
1.456205e+003,7.904058e+002
1.458133e+003,7.750084e+002
1.460062e+003,7.646131e+002
1.461990e+003,7.594144e+002
1.463919e+003,7.580734e+002
1.465847e+003,7.581931e+002
1.467776e+003,7.640502e+002
1.469704e+003,7.769886e+002
1.471632e+003,7.980943e+002
1.473561e+003,8.378241e+002
1.475489e+003,9.087323e+002
1.477418e+003,9.552252e+002
1.479346e+003,9.560679e+002
1.481275e+003,9.329938e+002
1.483203e+003,8.880170e+002
1.485132e+003,8.300032e+002
1.487060e+003,7.940927e+002
1.488989e+003,7.850668e+002
1.490917e+003,7.846502e+002
1.492846e+003,8.006898e+002
1.494774e+003,8.129080e+002
1.496703e+003,8.070316e+002
1.498631e+003,7.904650e+002
1.500559e+003,7.857243e+002
1.502488e+003,7.996722e+002
1.504416e+003,8.058432e+002
1.506345e+003,7.932712e+002
1.508273e+003,7.827037e+002
1.510202e+003,7.846735e+002
1.512130e+003,7.932240e+002
1.514059e+003,7.971184e+002
1.515987e+003,7.947993e+002
1.517916e+003,7.935420e+002
1.519844e+003,7.936794e+002
1.521773e+003,7.950201e+002
1.523701e+003,7.976163e+002
1.525630e+003,8.013203e+002
1.527558e+003,8.052849e+002
1.529486e+003,8.088998e+002
1.531415e+003,8.159341e+002
1.533343e+003,8.210985e+002
1.535272e+003,8.359069e+002
1.537200e+003,8.632286e+002
1.539129e+003,9.005323e+002
1.541057e+003,9.459404e+002
1.542986e+003,1.000083e+003
1.544914e+003,1.068600e+003
1.546843e+003,1.172584e+003
1.548771e+003,1.238722e+003
1.550700e+003,1.242554e+003
1.552628e+003,1.214012e+003
1.554557e+003,1.145937e+003
1.556485e+003,1.062402e+003
1.558413e+003,1.024270e+003
1.560342e+003,1.033977e+003
1.562270e+003,1.076249e+003
1.564199e+003,1.176070e+003
1.566127e+003,1.268188e+003
1.568056e+003,1.344765e+003
1.569984e+003,1.381332e+003
1.571913e+003,1.332167e+003
1.573841e+003,1.201763e+003
1.575770e+003,1.093178e+003
1.577698e+003,1.019096e+003
1.579627e+003,9.642608e+002
1.581555e+003,9.284447e+002
1.583484e+003,9.056864e+002
1.585412e+003,8.956169e+002
1.587340e+003,8.945275e+002
1.589269e+003,8.850571e+002
1.591197e+003,8.623370e+002
1.593126e+003,8.481871e+002
1.595054e+003,8.500941e+002
1.596983e+003,8.587085e+002
1.598911e+003,8.664918e+002
1.600840e+003,8.779166e+002
1.602768e+003,9.074050e+002
1.604697e+003,9.574543e+002
1.606625e+003,9.877159e+002
1.608554e+003,9.892971e+002
1.610482e+003,9.786119e+002
1.612411e+003,9.548863e+002
1.614339e+003,9.275281e+002
1.616267e+003,9.034553e+002
1.618196e+003,8.829806e+002
1.620124e+003,8.676536e+002
1.622053e+003,8.594545e+002
1.623981e+003,8.510565e+002
1.625910e+003,8.382908e+002
1.627838e+003,8.275354e+002
1.629767e+003,8.230840e+002
1.631695e+003,8.216512e+002
1.633624e+003,8.166297e+002
1.635552e+003,8.069532e+002
1.637481e+003,8.005157e+002
1.639409e+003,7.977876e+002
1.641338e+003,7.989409e+002
1.643266e+003,8.076913e+002
1.645194e+003,8.173945e+002
1.647123e+003,8.231628e+002
1.649051e+003,8.252728e+002
1.650980e+003,8.250917e+002
1.652908e+003,8.216400e+002
1.654837e+003,8.174813e+002
1.656765e+003,8.096928e+002
1.658694e+003,8.045401e+002
1.660622e+003,8.076544e+002
1.662551e+003,8.126349e+002
1.664479e+003,8.101494e+002
1.666408e+003,7.999594e+002
1.668336e+003,7.973167e+002
1.670265e+003,8.099367e+002
1.672193e+003,8.159009e+002
1.674121e+003,8.045572e+002
1.676050e+003,7.942228e+002
1.677978e+003,7.956183e+002
1.679907e+003,8.039542e+002
1.681835e+003,8.091140e+002
1.683764e+003,8.091887e+002
1.685692e+003,8.132609e+002
1.687621e+003,8.254869e+002
1.689549e+003,8.351099e+002
1.691478e+003,8.412513e+002
1.693406e+003,8.435864e+002
1.695335e+003,8.405947e+002
1.697263e+003,8.342230e+002
1.699192e+003,8.300118e+002
1.701120e+003,8.286004e+002
1.703048e+003,8.271724e+002
1.704977e+003,8.232047e+002
1.706905e+003,8.215212e+002
1.708834e+003,8.247014e+002
1.710762e+003,8.286525e+002
1.712691e+003,8.295078e+002
1.714619e+003,8.280760e+002
1.716548e+003,8.293582e+002
1.718476e+003,8.364495e+002
1.720405e+003,8.376854e+002
1.722333e+003,8.255106e+002
1.724262e+003,8.169225e+002
1.726190e+003,8.200699e+002
1.728119e+003,8.261718e+002
1.730047e+003,8.271024e+002
1.731975e+003,8.231254e+002
1.733904e+003,8.172478e+002
1.735832e+003,8.081654e+002
1.737761e+003,8.015798e+002
1.739689e+003,7.983894e+002
1.741618e+003,7.979283e+002
1.743546e+003,8.009355e+002
1.745475e+003,8.057053e+002
1.747403e+003,8.118555e+002
1.749332e+003,8.185081e+002
1.751260e+003,8.188647e+002
1.753189e+003,8.099506e+002
1.755117e+003,8.075294e+002
1.757046e+003,8.209765e+002
1.758974e+003,8.307040e+002
1.760902e+003,8.258190e+002
1.762831e+003,8.181868e+002
1.764759e+003,8.191517e+002
1.766688e+003,8.266687e+002
1.768616e+003,8.319424e+002
1.770545e+003,8.348339e+002
1.772473e+003,8.314622e+002
1.774402e+003,8.125258e+002
1.776330e+003,8.019349e+002
1.778259e+003,8.164957e+002
1.780187e+003,8.361931e+002
1.782116e+003,8.483462e+002
1.784044e+003,8.528553e+002
1.785973e+003,8.461853e+002
1.787901e+003,8.274028e+002
1.789829e+003,8.173698e+002
1.791758e+003,8.221886e+002
1.793686e+003,8.284199e+002
1.795615e+003,8.320305e+002
1.797543e+003,8.348646e+002
1.799472e+003,8.403311e+002
1.801400e+003,8.450473e+002
1.803329e+003,8.405291e+002
1.805257e+003,8.270638e+002
1.807186e+003,8.188370e+002
1.809114e+003,8.162312e+002
1.811043e+003,8.214387e+002
1.812971e+003,8.444733e+002
1.814900e+003,8.641653e+002
1.816828e+003,8.669844e+002
1.818756e+003,8.606604e+002
1.820685e+003,8.523340e+002
1.822613e+003,8.433515e+002
1.824542e+003,8.469642e+002
1.826470e+003,8.701620e+002
1.828399e+003,8.819572e+002
1.830327e+003,8.681750e+002
1.832256e+003,8.544708e+002
1.834184e+003,8.501226e+002
1.836113e+003,8.501125e+002
1.838041e+003,8.503027e+002
1.839970e+003,8.511412e+002
1.841898e+003,8.536871e+002
1.843827e+003,8.584943e+002
1.845755e+003,8.641030e+002
1.847684e+003,8.735596e+002
1.849612e+003,8.790010e+002
1.851541e+003,8.731552e+002
1.853469e+003,8.683160e+002
1.855397e+003,8.743074e+002
1.857326e+003,8.845101e+002
1.859254e+003,8.875055e+002
1.861183e+003,8.831131e+002
1.863111e+003,8.813803e+002
1.865040e+003,8.847650e+002
1.866968e+003,8.861705e+002
1.868897e+003,8.831305e+002
1.870825e+003,8.814113e+002
1.872754e+003,8.818705e+002
1.874682e+003,8.854045e+002
1.876611e+003,8.955574e+002
1.878539e+003,9.089407e+002
1.880468e+003,9.157481e+002
1.882396e+003,9.158180e+002
1.884324e+003,9.096654e+002
1.886253e+003,8.912380e+002
1.888181e+003,8.842282e+002
1.890110e+003,9.036476e+002
1.892038e+003,9.219056e+002
1.893967e+003,9.221011e+002
1.895895e+003,9.162637e+002
1.897824e+003,9.164909e+002
1.899752e+003,9.209781e+002
1.901681e+003,9.243718e+002
1.903609e+003,9.267244e+002
1.905538e+003,9.276143e+002
1.907466e+003,9.262352e+002
1.909395e+003,9.261553e+002
1.911323e+003,9.313682e+002
1.913251e+003,9.349544e+002
1.915180e+003,9.295837e+002
1.917108e+003,9.224907e+002
1.919037e+003,9.242683e+002
1.920965e+003,9.330372e+002
1.922894e+003,9.383602e+002
1.924822e+003,9.400254e+002
1.926751e+003,9.394130e+002
1.928679e+003,9.302156e+002
1.930608e+003,9.287336e+002
1.932536e+003,9.463400e+002
1.934465e+003,9.629536e+002
1.936393e+003,9.644217e+002
1.938322e+003,9.597681e+002
1.940250e+003,9.620311e+002
1.942178e+003,9.694930e+002
1.944107e+003,9.702535e+002
1.946035e+003,9.618018e+002
1.947964e+003,9.573724e+002
1.949892e+003,9.590098e+002
1.951821e+003,9.628008e+002
1.953749e+003,9.706812e+002
1.955678e+003,9.775706e+002
1.957606e+003,9.780665e+002
1.959535e+003,9.785516e+002
1.961463e+003,9.897138e+002
1.963392e+003,1.006006e+003
1.965320e+003,1.008334e+003
1.967249e+003,9.959511e+002
1.969177e+003,9.876243e+002
1.971105e+003,9.862259e+002
1.973034e+003,9.865338e+002
1.974962e+003,9.866692e+002
1.976891e+003,9.897369e+002
1.978819e+003,1.001837e+003
1.980748e+003,1.013452e+003
1.982676e+003,1.013437e+003
1.984605e+003,1.006368e+003
1.986533e+003,1.002955e+003
1.988462e+003,1.003043e+003
1.990390e+003,1.006554e+003
1.992319e+003,1.020075e+003
1.994247e+003,1.025649e+003
1.996176e+003,1.012951e+003
1.998104e+003,1.007584e+003
2.000032e+003,1.025423e+003
2.001961e+003,1.042711e+003
2.003889e+003,1.040666e+003
2.005818e+003,1.030260e+003
2.007746e+003,1.027547e+003
2.009675e+003,1.030900e+003
2.011603e+003,1.030884e+003
2.013532e+003,1.026874e+003
2.015460e+003,1.028444e+003
2.017389e+003,1.040934e+003
2.019317e+003,1.045487e+003
2.021246e+003,1.032137e+003
2.023174e+003,1.019076e+003
2.025103e+003,1.011418e+003
2.027031e+003,1.011092e+003
2.028959e+003,1.026066e+003
2.030888e+003,1.046457e+003
2.032816e+003,1.051322e+003
2.034745e+003,1.041800e+003
2.036673e+003,1.039177e+003
2.038602e+003,1.047763e+003
2.040530e+003,1.051216e+003
2.042459e+003,1.044276e+003
2.044387e+003,1.040252e+003
2.046316e+003,1.043033e+003
2.048244e+003,1.046820e+003
2.050173e+003,1.048440e+003
2.052101e+003,1.050142e+003
2.054030e+003,1.054577e+003
2.055958e+003,1.060511e+003
2.057886e+003,1.066673e+003
2.059815e+003,1.072400e+003
2.061743e+003,1.068440e+003
2.063672e+003,1.052314e+003
2.065600e+003,1.045253e+003
2.067529e+003,1.053353e+003
2.069457e+003,1.061909e+003
2.071386e+003,1.070030e+003
2.073314e+003,1.072741e+003
2.075243e+003,1.062261e+003
2.077171e+003,1.050938e+003
2.079100e+003,1.052196e+003
2.081028e+003,1.059636e+003
2.082957e+003,1.059372e+003
2.084885e+003,1.052271e+003
2.086813e+003,1.051005e+003
2.088742e+003,1.057329e+003
2.090670e+003,1.063143e+003
2.092599e+003,1.069297e+003
2.094527e+003,1.072411e+003
2.096456e+003,1.069565e+003
2.098384e+003,1.067588e+003
2.100313e+003,1.072395e+003
2.102241e+003,1.075633e+003
2.104170e+003,1.069319e+003
2.106098e+003,1.060259e+003
2.108027e+003,1.055656e+003
2.109955e+003,1.055604e+003
2.111884e+003,1.062350e+003
2.113812e+003,1.075757e+003
2.115740e+003,1.083507e+003
2.117669e+003,1.083541e+003
2.119597e+003,1.082971e+003
2.121526e+003,1.078083e+003
2.123454e+003,1.079837e+003
2.125383e+003,1.095133e+003
2.127311e+003,1.111364e+003
2.129240e+003,1.127231e+003
2.131168e+003,1.136001e+003
2.133097e+003,1.126712e+003
2.135025e+003,1.108540e+003
2.136954e+003,1.097198e+003
2.138882e+003,1.092263e+003
2.140811e+003,1.091557e+003
2.142739e+003,1.095326e+003
2.144667e+003,1.101541e+003
2.146596e+003,1.111199e+003
2.148524e+003,1.118227e+003
2.150453e+003,1.120210e+003
2.152381e+003,1.121328e+003
2.154310e+003,1.123210e+003
2.156238e+003,1.123642e+003
2.158167e+003,1.121153e+003
2.160095e+003,1.117272e+003
2.162024e+003,1.111057e+003
2.163952e+003,1.106123e+003
2.165881e+003,1.110878e+003
2.167809e+003,1.122876e+003
2.169738e+003,1.126606e+003
2.171666e+003,1.121568e+003
2.173594e+003,1.121463e+003
2.175523e+003,1.128235e+003
2.177451e+003,1.129405e+003
2.179380e+003,1.118635e+003
2.181308e+003,1.115213e+003
2.183237e+003,1.137490e+003
2.185165e+003,1.150847e+003
2.187094e+003,1.129667e+003
2.189022e+003,1.107410e+003
2.190951e+003,1.110755e+003
2.192879e+003,1.124531e+003
2.194808e+003,1.128439e+003
2.196736e+003,1.126725e+003
2.198665e+003,1.133643e+003
2.200593e+003,1.148357e+003
2.202521e+003,1.152446e+003
2.204450e+003,1.144655e+003
2.206378e+003,1.141378e+003
2.208307e+003,1.146215e+003
2.210235e+003,1.145275e+003
2.212164e+003,1.129149e+003
2.214092e+003,1.123906e+003
2.216021e+003,1.153192e+003
2.217949e+003,1.175589e+003
2.219878e+003,1.165245e+003
2.221806e+003,1.147724e+003
2.223735e+003,1.139086e+003
2.225663e+003,1.137560e+003
2.227592e+003,1.144794e+003
2.229520e+003,1.155981e+003
2.231448e+003,1.158230e+003
2.233377e+003,1.152350e+003
2.235305e+003,1.143687e+003
2.237234e+003,1.132663e+003
2.239162e+003,1.126214e+003
2.241091e+003,1.125326e+003
2.243019e+003,1.129321e+003
2.244948e+003,1.142358e+003
2.246876e+003,1.149756e+003
2.248805e+003,1.138544e+003
2.250733e+003,1.132254e+003
2.252662e+003,1.145585e+003
2.254590e+003,1.158775e+003
2.256519e+003,1.157421e+003
2.258447e+003,1.152470e+003
2.260375e+003,1.158763e+003
2.262304e+003,1.167015e+003
2.264232e+003,1.154174e+003
2.266161e+003,1.131114e+003
2.268089e+003,1.135760e+003
2.270018e+003,1.164002e+003
2.271946e+003,1.176568e+003
2.273875e+003,1.169446e+003
2.275803e+003,1.165510e+003
2.277732e+003,1.168951e+003
2.279660e+003,1.170655e+003
2.281589e+003,1.172729e+003
2.283517e+003,1.169604e+003
2.285446e+003,1.152643e+003
2.287374e+003,1.141567e+003
2.289302e+003,1.143867e+003
2.291231e+003,1.151824e+003
2.293159e+003,1.164962e+003
2.295088e+003,1.177538e+003
2.297016e+003,1.183042e+003
2.298945e+003,1.186175e+003
2.300873e+003,1.196550e+003
2.302802e+003,1.208587e+003
2.304730e+003,1.205375e+003
2.306659e+003,1.189583e+003
2.308587e+003,1.183062e+003
2.310516e+003,1.186804e+003
2.312444e+003,1.192574e+003
2.314373e+003,1.201610e+003
2.316301e+003,1.205847e+003
2.318229e+003,1.204659e+003
2.320158e+003,1.199368e+003
2.322086e+003,1.187778e+003
2.324015e+003,1.179503e+003
2.325943e+003,1.177525e+003
2.327872e+003,1.179654e+003
2.329800e+003,1.188482e+003
2.331729e+003,1.196453e+003
2.333657e+003,1.194891e+003
2.335586e+003,1.194381e+003
2.337514e+003,1.207495e+003
2.339443e+003,1.223427e+003
2.341371e+003,1.228137e+003
2.343300e+003,1.225963e+003
2.345228e+003,1.223674e+003
2.347156e+003,1.222589e+003
2.349085e+003,1.229326e+003
2.351013e+003,1.242998e+003
2.352942e+003,1.245152e+003
2.354870e+003,1.233900e+003
2.356799e+003,1.225715e+003
2.358727e+003,1.220680e+003
2.360656e+003,1.218802e+003
2.362584e+003,1.220906e+003
2.364513e+003,1.222212e+003
2.366441e+003,1.219843e+003
2.368370e+003,1.221684e+003
2.370298e+003,1.233498e+003
2.372227e+003,1.242693e+003
2.374155e+003,1.244464e+003
2.376083e+003,1.241805e+003
2.378012e+003,1.232588e+003
2.379940e+003,1.224160e+003
2.381869e+003,1.221831e+003
2.383797e+003,1.223114e+003
2.385726e+003,1.227540e+003
2.387654e+003,1.232795e+003
2.389583e+003,1.236040e+003
2.391511e+003,1.237563e+003
2.393440e+003,1.235984e+003
2.395368e+003,1.233138e+003
2.397297e+003,1.236617e+003
2.399225e+003,1.245584e+003
2.401154e+003,1.249780e+003
2.403082e+003,1.247962e+003
2.405010e+003,1.249948e+003
2.406939e+003,1.257488e+003
2.408867e+003,1.260427e+003
2.410796e+003,1.258598e+003
2.412724e+003,1.249941e+003
2.414653e+003,1.228819e+003
2.416581e+003,1.219978e+003
2.418510e+003,1.234276e+003
2.420438e+003,1.250729e+003
2.422367e+003,1.268277e+003
2.424295e+003,1.278766e+003
2.426224e+003,1.275079e+003
2.428152e+003,1.269370e+003
2.430081e+003,1.269670e+003
2.432009e+003,1.267848e+003
2.433938e+003,1.255297e+003
2.435866e+003,1.244568e+003
2.437794e+003,1.250961e+003
2.439723e+003,1.259505e+003
2.441651e+003,1.245766e+003
2.443580e+003,1.228660e+003
2.445508e+003,1.243788e+003
2.447437e+003,1.274328e+003
2.449365e+003,1.282104e+003
2.451294e+003,1.272765e+003
2.453222e+003,1.268329e+003
2.455151e+003,1.267241e+003
2.457079e+003,1.259555e+003
2.459008e+003,1.246552e+003
2.460936e+003,1.242415e+003
2.462865e+003,1.249297e+003
2.464793e+003,1.253691e+003
2.466721e+003,1.254746e+003
2.468650e+003,1.254629e+003
2.470578e+003,1.251333e+003
2.472507e+003,1.253094e+003
2.474435e+003,1.261923e+003
2.476364e+003,1.268656e+003
2.478292e+003,1.271782e+003
2.480221e+003,1.272100e+003
2.482149e+003,1.270133e+003
2.484078e+003,1.265897e+003
2.486006e+003,1.255395e+003
2.487935e+003,1.249539e+003
2.489863e+003,1.253914e+003
2.491792e+003,1.260172e+003
2.493720e+003,1.266259e+003
2.495648e+003,1.271218e+003
2.497577e+003,1.277617e+003
2.499505e+003,1.278423e+003
2.501434e+003,1.260105e+003
2.503362e+003,1.245076e+003
2.505291e+003,1.258142e+003
2.507219e+003,1.278155e+003
2.509148e+003,1.285569e+003
2.511076e+003,1.285640e+003
2.513005e+003,1.283535e+003
2.514933e+003,1.278789e+003
2.516862e+003,1.265615e+003
2.518790e+003,1.252224e+003
2.520719e+003,1.257320e+003
2.522647e+003,1.273535e+003
2.524575e+003,1.282044e+003
2.526504e+003,1.284376e+003
2.528432e+003,1.285392e+003
2.530361e+003,1.285734e+003
2.532289e+003,1.288913e+003
2.534218e+003,1.294724e+003
2.536146e+003,1.303830e+003
2.538075e+003,1.315919e+003
2.540003e+003,1.322307e+003
2.541932e+003,1.323070e+003
2.543860e+003,1.317215e+003
2.545789e+003,1.303175e+003
2.547717e+003,1.295505e+003
2.549646e+003,1.295304e+003
2.551574e+003,1.295992e+003
2.553502e+003,1.296070e+003
2.555431e+003,1.303890e+003
2.557359e+003,1.325844e+003
2.559288e+003,1.339206e+003
2.561216e+003,1.337003e+003
2.563145e+003,1.334470e+003
2.565073e+003,1.331819e+003
2.567002e+003,1.330684e+003
2.568930e+003,1.332665e+003
2.570859e+003,1.332760e+003
2.572787e+003,1.328252e+003
2.574716e+003,1.325359e+003
2.576644e+003,1.322524e+003
2.578573e+003,1.326326e+003
2.580501e+003,1.346874e+003
2.582429e+003,1.360060e+003
2.584358e+003,1.358731e+003
2.586287e+003,1.350393e+003
2.588215e+003,1.330299e+003
2.590144e+003,1.318011e+003
2.592072e+003,1.329888e+003
2.594000e+003,1.342293e+003
2.595929e+003,1.343685e+003
2.597857e+003,1.342737e+003
2.599786e+003,1.342785e+003
2.601714e+003,1.342683e+003
2.603643e+003,1.338661e+003
2.605571e+003,1.337852e+003
2.607500e+003,1.352162e+003
2.609428e+003,1.362493e+003
2.611357e+003,1.346762e+003
2.613285e+003,1.331009e+003
2.615214e+003,1.342651e+003
2.617142e+003,1.357177e+003
2.619071e+003,1.348549e+003
2.620999e+003,1.338055e+003
2.622927e+003,1.347697e+003
2.624856e+003,1.360700e+003
2.626784e+003,1.361152e+003
2.628713e+003,1.354798e+003
2.630641e+003,1.343564e+003
2.632570e+003,1.333820e+003
2.634498e+003,1.330872e+003
2.636427e+003,1.336382e+003
2.638355e+003,1.363704e+003
2.640284e+003,1.389991e+003
2.642212e+003,1.377120e+003
2.644141e+003,1.350262e+003
2.646069e+003,1.348403e+003
2.647998e+003,1.356835e+003
2.649926e+003,1.349463e+003
2.651854e+003,1.337379e+003
2.653783e+003,1.342857e+003
2.655711e+003,1.354079e+003
2.657640e+003,1.349058e+003
2.659568e+003,1.338836e+003
2.661497e+003,1.347846e+003
2.663425e+003,1.364354e+003
2.665354e+003,1.362181e+003
2.667282e+003,1.350176e+003
2.669211e+003,1.345209e+003
2.671139e+003,1.345208e+003
2.673068e+003,1.347453e+003
2.674996e+003,1.350784e+003
2.676925e+003,1.353880e+003
2.678853e+003,1.355994e+003
2.680781e+003,1.354464e+003
2.682710e+003,1.351228e+003
2.684638e+003,1.351734e+003
2.686567e+003,1.353754e+003
2.688495e+003,1.354149e+003
2.690424e+003,1.351427e+003
2.692352e+003,1.335798e+003
2.694281e+003,1.316880e+003
2.696209e+003,1.321992e+003
2.698138e+003,1.342542e+003
2.700066e+003,1.360563e+003
2.701995e+003,1.373849e+003
2.703923e+003,1.376190e+003
2.705852e+003,1.370739e+003
2.707780e+003,1.364097e+003
2.709708e+003,1.356818e+003
2.711637e+003,1.352688e+003
2.713565e+003,1.348711e+003
2.715494e+003,1.333359e+003
2.717422e+003,1.316346e+003
2.719351e+003,1.322199e+003
2.721279e+003,1.338314e+003
2.723208e+003,1.334286e+003
2.725136e+003,1.321360e+003
2.727065e+003,1.322676e+003
2.728993e+003,1.333120e+003
2.730922e+003,1.346357e+003
2.732850e+003,1.357796e+003
2.734779e+003,1.354538e+003
2.736707e+003,1.346846e+003
2.738635e+003,1.359659e+003
2.740564e+003,1.377874e+003
2.742492e+003,1.372894e+003
2.744421e+003,1.357207e+003
2.746349e+003,1.345102e+003
2.748278e+003,1.339466e+003
2.750206e+003,1.351679e+003
2.752135e+003,1.366277e+003
2.754063e+003,1.358590e+003
2.755992e+003,1.341046e+003
2.757920e+003,1.325647e+003
2.759849e+003,1.315383e+003
2.761777e+003,1.318308e+003
2.763706e+003,1.324130e+003
2.765634e+003,1.320819e+003
2.767563e+003,1.315030e+003
2.769491e+003,1.309847e+003
2.771419e+003,1.310010e+003
2.773348e+003,1.323943e+003
2.775276e+003,1.339097e+003
2.777205e+003,1.345530e+003
2.779133e+003,1.346298e+003
2.781062e+003,1.340236e+003
2.782990e+003,1.333843e+003
2.784919e+003,1.331972e+003
2.786847e+003,1.331564e+003
2.788776e+003,1.334097e+003
2.790704e+003,1.333041e+003
2.792633e+003,1.320389e+003
2.794561e+003,1.309735e+003
2.796490e+003,1.312230e+003
2.798418e+003,1.315162e+003
2.800346e+003,1.309999e+003
2.802275e+003,1.310274e+003
2.804203e+003,1.325230e+003
2.806132e+003,1.341844e+003
2.808060e+003,1.359092e+003
2.809989e+003,1.367794e+003
2.811917e+003,1.361710e+003
2.813846e+003,1.353010e+003
2.815774e+003,1.341391e+003
2.817703e+003,1.337184e+003
2.819631e+003,1.350884e+003
2.821560e+003,1.360000e+003
2.823488e+003,1.357297e+003
2.825417e+003,1.359858e+003
2.827345e+003,1.370149e+003
2.829273e+003,1.385974e+003
2.831202e+003,1.403871e+003
2.833130e+003,1.438697e+003
2.835059e+003,1.505859e+003
2.836987e+003,1.551835e+003
2.838916e+003,1.571128e+003
2.840844e+003,1.595818e+003
2.842773e+003,1.629935e+003
2.844701e+003,1.646813e+003
2.846630e+003,1.641733e+003
2.848558e+003,1.638989e+003
2.850487e+003,1.639234e+003
2.852415e+003,1.640611e+003
2.854344e+003,1.641186e+003
2.856272e+003,1.615581e+003
2.858200e+003,1.568122e+003
2.860129e+003,1.543378e+003
2.862057e+003,1.536458e+003
2.863986e+003,1.522337e+003
2.865914e+003,1.501717e+003
2.867843e+003,1.470895e+003
2.869771e+003,1.439124e+003
2.871700e+003,1.428666e+003
2.873628e+003,1.431152e+003
2.875557e+003,1.434985e+003
2.877485e+003,1.436816e+003
2.879414e+003,1.427235e+003
2.881342e+003,1.417634e+003
2.883271e+003,1.417285e+003
2.885199e+003,1.427817e+003
2.887127e+003,1.448168e+003
2.889056e+003,1.483667e+003
2.890984e+003,1.542083e+003
2.892913e+003,1.611837e+003
2.894841e+003,1.690797e+003
2.896770e+003,1.770630e+003
2.898698e+003,1.875896e+003
2.900627e+003,1.931974e+003
2.902555e+003,1.898528e+003
2.904484e+003,1.838184e+003
2.906412e+003,1.754567e+003
2.908341e+003,1.685708e+003
2.910269e+003,1.638888e+003
2.912198e+003,1.617256e+003
2.914126e+003,1.622601e+003
2.916054e+003,1.646494e+003
2.917983e+003,1.689708e+003
2.919911e+003,1.739810e+003
2.921840e+003,1.799407e+003
2.923768e+003,1.848972e+003
2.925697e+003,1.889828e+003
2.927625e+003,1.904582e+003
2.929554e+003,1.894372e+003
2.931482e+003,1.868274e+003
2.933411e+003,1.831186e+003
2.935339e+003,1.811258e+003
2.937268e+003,1.808215e+003
2.939196e+003,1.832012e+003
2.941125e+003,1.866960e+003
2.943053e+003,1.878284e+003
2.944981e+003,1.873837e+003
2.946910e+003,1.871135e+003
2.948838e+003,1.855804e+003
2.950767e+003,1.794657e+003
2.952695e+003,1.729021e+003
2.954624e+003,1.691237e+003
2.956552e+003,1.667828e+003
2.958481e+003,1.654326e+003
2.960409e+003,1.643644e+003
2.962338e+003,1.616231e+003
2.964266e+003,1.619784e+003
2.966195e+003,1.691175e+003
2.968123e+003,1.748943e+003
2.970052e+003,1.766001e+003
2.971980e+003,1.765706e+003
2.973908e+003,1.752213e+003
2.975837e+003,1.715775e+003
2.977765e+003,1.649074e+003
2.979694e+003,1.607431e+003
2.981622e+003,1.603823e+003
2.983551e+003,1.587845e+003
2.985479e+003,1.559066e+003
2.987408e+003,1.542839e+003
2.989336e+003,1.537449e+003
2.991265e+003,1.532786e+003
2.993193e+003,1.528252e+003
2.995122e+003,1.518230e+003
2.997050e+003,1.510151e+003
2.998979e+003,1.524576e+003
3.000907e+003,1.546011e+003
3.002835e+003,1.557330e+003
3.004764e+003,1.561729e+003
3.006692e+003,1.554772e+003
3.008621e+003,1.551773e+003
3.010549e+003,1.561031e+003
3.012478e+003,1.578935e+003
3.014406e+003,1.600622e+003
3.016335e+003,1.636315e+003
3.018263e+003,1.709844e+003
3.020192e+003,1.759712e+003
3.022120e+003,1.775502e+003
3.024049e+003,1.773636e+003
3.025977e+003,1.749713e+003
3.027906e+003,1.734151e+003
3.029834e+003,1.724527e+003
3.031762e+003,1.753905e+003
3.033691e+003,1.819814e+003
3.035619e+003,1.886164e+003
3.037548e+003,1.965260e+003
3.039476e+003,2.117149e+003
3.041405e+003,2.329387e+003
3.043333e+003,2.603598e+003
3.045262e+003,2.883816e+003
3.047190e+003,3.174132e+003
3.049119e+003,3.329104e+003
3.051047e+003,3.136227e+003
3.052976e+003,2.827187e+003
3.054904e+003,2.488288e+003
3.056833e+003,2.199506e+003
3.058761e+003,1.999884e+003
3.060689e+003,1.859034e+003
3.062618e+003,1.784203e+003
3.064546e+003,1.733122e+003
3.066475e+003,1.700091e+003
3.068403e+003,1.703389e+003
3.070332e+003,1.756356e+003
3.072260e+003,1.789641e+003
3.074189e+003,1.801811e+003
3.076117e+003,1.772885e+003
3.078046e+003,1.715981e+003
3.079974e+003,1.689764e+003
3.081903e+003,1.679120e+003
3.083831e+003,1.645687e+003
3.085760e+003,1.610078e+003
3.087688e+003,1.601517e+003
3.089616e+003,1.603848e+003
3.091545e+003,1.616597e+003
3.093473e+003,1.617515e+003
3.095402e+003,1.573055e+003
3.097330e+003,1.550855e+003
3.099259e+003,1.579144e+003
3.101187e+003,1.605213e+003
3.103116e+003,1.614363e+003
3.105044e+003,1.619311e+003
3.106973e+003,1.619815e+003
3.108901e+003,1.632023e+003
3.110830e+003,1.654278e+003
3.112758e+003,1.632956e+003
3.114687e+003,1.580766e+003
3.116615e+003,1.558940e+003
3.118543e+003,1.557237e+003
3.120472e+003,1.559790e+003
3.122400e+003,1.562049e+003
3.124329e+003,1.558458e+003
3.126257e+003,1.553406e+003
3.128186e+003,1.557300e+003
3.130114e+003,1.550250e+003
3.132043e+003,1.504602e+003
3.133971e+003,1.483564e+003
3.135900e+003,1.518788e+003
3.137828e+003,1.535953e+003
3.139757e+003,1.524102e+003
3.141685e+003,1.531873e+003
3.143614e+003,1.564982e+003
3.145542e+003,1.570386e+003
3.147470e+003,1.551260e+003
3.149399e+003,1.520511e+003
3.151327e+003,1.491254e+003
3.153256e+003,1.496326e+003
3.155184e+003,1.510743e+003
3.157113e+003,1.491337e+003
3.159041e+003,1.482352e+003
3.160970e+003,1.540989e+003
3.162898e+003,1.570317e+003
3.164827e+003,1.488028e+003
3.166755e+003,1.445907e+003
3.168684e+003,1.479568e+003
3.170612e+003,1.503902e+003
3.172541e+003,1.505456e+003
3.174469e+003,1.521025e+003
3.176397e+003,1.550910e+003
3.178326e+003,1.516669e+003
3.180254e+003,1.453943e+003
3.182183e+003,1.480936e+003
3.184111e+003,1.539472e+003
3.186040e+003,1.548398e+003
3.187968e+003,1.524134e+003
3.189897e+003,1.448044e+003
3.191825e+003,1.404313e+003
3.193754e+003,1.469002e+003
3.195682e+003,1.516669e+003
3.197611e+003,1.515097e+003
3.199539e+003,1.519672e+003
3.201468e+003,1.541734e+003
3.203396e+003,1.539954e+003
3.205324e+003,1.513112e+003
3.207253e+003,1.522886e+003
3.209181e+003,1.552141e+003
3.211110e+003,1.545213e+003
3.213038e+003,1.526736e+003
3.214967e+003,1.533733e+003
3.216895e+003,1.550582e+003
3.218824e+003,1.571051e+003
3.220752e+003,1.585156e+003
3.222681e+003,1.583882e+003
3.224609e+003,1.581658e+003
3.226538e+003,1.579516e+003
3.228466e+003,1.583356e+003
3.230395e+003,1.594490e+003
3.232323e+003,1.599600e+003
3.234251e+003,1.597682e+003
3.236180e+003,1.574605e+003
3.238108e+003,1.547426e+003
3.240037e+003,1.555974e+003
3.241965e+003,1.574846e+003
3.243894e+003,1.576225e+003
3.245822e+003,1.573712e+003
3.247751e+003,1.576470e+003
3.249679e+003,1.574354e+003
3.251608e+003,1.551966e+003
3.253536e+003,1.551770e+003
3.255465e+003,1.579473e+003
3.257393e+003,1.589282e+003
3.259322e+003,1.579715e+003
3.261250e+003,1.596117e+003
3.263178e+003,1.620855e+003
3.265107e+003,1.581828e+003
3.267035e+003,1.536318e+003
3.268964e+003,1.568066e+003
3.270892e+003,1.601322e+003
3.272821e+003,1.572311e+003
3.274749e+003,1.558086e+003
3.276678e+003,1.594989e+003
3.278606e+003,1.614648e+003
3.280535e+003,1.602764e+003
3.282463e+003,1.605100e+003
3.284392e+003,1.617756e+003
3.286320e+003,1.588015e+003
3.288249e+003,1.542561e+003
3.290177e+003,1.567445e+003
3.292105e+003,1.604698e+003
3.294034e+003,1.578079e+003
3.295962e+003,1.557842e+003
3.297891e+003,1.608587e+003
3.299819e+003,1.632910e+003
3.301748e+003,1.599656e+003
3.303676e+003,1.586338e+003
3.305605e+003,1.609969e+003
3.307533e+003,1.624066e+003
3.309462e+003,1.629114e+003
3.311390e+003,1.632256e+003
3.313319e+003,1.625536e+003
3.315247e+003,1.575910e+003
3.317176e+003,1.534566e+003
3.319104e+003,1.561113e+003
3.321032e+003,1.581456e+003
3.322961e+003,1.543820e+003
3.324889e+003,1.536234e+003
3.326818e+003,1.576409e+003
3.328746e+003,1.596495e+003
3.330675e+003,1.591855e+003
3.332603e+003,1.576595e+003
3.334532e+003,1.560366e+003
3.336460e+003,1.586647e+003
3.338389e+003,1.611441e+003
3.340317e+003,1.571074e+003
3.342246e+003,1.540268e+003
3.344174e+003,1.578401e+003
3.346103e+003,1.587647e+003
3.348031e+003,1.528209e+003
3.349959e+003,1.533542e+003
3.351888e+003,1.618763e+003
3.353816e+003,1.648916e+003
3.355745e+003,1.641204e+003
3.357673e+003,1.652677e+003
3.359602e+003,1.662209e+003
3.361530e+003,1.627089e+003
3.363459e+003,1.598933e+003
3.365387e+003,1.605982e+003
3.367316e+003,1.630890e+003
3.369244e+003,1.677407e+003
3.371173e+003,1.709376e+003
3.373101e+003,1.725495e+003
3.375030e+003,1.753300e+003
3.376958e+003,1.792578e+003
3.378886e+003,1.844515e+003
3.380815e+003,1.900870e+003
3.382743e+003,1.945346e+003
3.384672e+003,1.999827e+003
3.386600e+003,2.036518e+003
3.388529e+003,2.180621e+003
3.390457e+003,2.467869e+003
3.392386e+003,2.836832e+003
3.394314e+003,3.281795e+003
3.396243e+003,3.487449e+003
3.398171e+003,3.505376e+003
3.400100e+003,3.478771e+003
3.402028e+003,3.374318e+003
3.403957e+003,3.107987e+003
3.405885e+003,2.826579e+003
3.407813e+003,2.586352e+003
3.409742e+003,2.353446e+003
3.411670e+003,2.108331e+003
3.413599e+003,1.965253e+003
3.415527e+003,1.914572e+003
3.417456e+003,1.861347e+003
3.419384e+003,1.810205e+003
3.421313e+003,1.778079e+003
3.423241e+003,1.747285e+003
3.425170e+003,1.684503e+003
3.427098e+003,1.663252e+003
3.429027e+003,1.723974e+003
3.430955e+003,1.735701e+003
3.432884e+003,1.682014e+003
3.434812e+003,1.688267e+003
3.436740e+003,1.734042e+003
3.438669e+003,1.746976e+003
3.440597e+003,1.738755e+003
3.442526e+003,1.705059e+003
3.444454e+003,1.686365e+003
3.446383e+003,1.711679e+003
3.448311e+003,1.714476e+003
3.450240e+003,1.670711e+003
3.452168e+003,1.646145e+003
3.454097e+003,1.638049e+003
3.456025e+003,1.621977e+003
3.457954e+003,1.612170e+003
3.459882e+003,1.641907e+003
3.461811e+003,1.673832e+003
3.463739e+003,1.702038e+003
3.465667e+003,1.687156e+003
3.467596e+003,1.571215e+003
3.469524e+003,1.557643e+003
3.471453e+003,1.629666e+003
3.473381e+003,1.597729e+003
3.475310e+003,1.527582e+003
3.477238e+003,1.565973e+003
3.479167e+003,1.629912e+003
3.481095e+003,1.678666e+003
3.483024e+003,1.689121e+003
3.484952e+003,1.640646e+003
3.486881e+003,1.604690e+003
3.488809e+003,1.587764e+003
3.490738e+003,1.612946e+003
3.492666e+003,1.651299e+003
3.494594e+003,1.618781e+003
3.496523e+003,1.579844e+003
3.498451e+003,1.591373e+003
3.500380e+003,1.601669e+003
3.502308e+003,1.590891e+003
3.504237e+003,1.616750e+003
3.506165e+003,1.685382e+003
3.508094e+003,1.647041e+003
3.510022e+003,1.559764e+003
3.511951e+003,1.571868e+003
3.513879e+003,1.607451e+003
3.515808e+003,1.602908e+003
3.517736e+003,1.603812e+003
3.519665e+003,1.624288e+003
3.521593e+003,1.641050e+003
3.523521e+003,1.651878e+003
3.525450e+003,1.698588e+003
3.527378e+003,1.739614e+003
3.529307e+003,1.661883e+003
3.531235e+003,1.594564e+003
3.533164e+003,1.659223e+003
3.535092e+003,1.703903e+003
3.537021e+003,1.677243e+003
3.538949e+003,1.646374e+003
3.540878e+003,1.617675e+003
3.542806e+003,1.631069e+003
3.544735e+003,1.658608e+003
3.546663e+003,1.660999e+003
3.548592e+003,1.643796e+003
3.550520e+003,1.586202e+003
3.552448e+003,1.583721e+003
3.554377e+003,1.678339e+003
3.556305e+003,1.702035e+003
3.558234e+003,1.668851e+003
3.560162e+003,1.651246e+003
3.562091e+003,1.653242e+003
3.564019e+003,1.693076e+003
3.565948e+003,1.728777e+003
3.567876e+003,1.743575e+003
3.569805e+003,1.744027e+003
3.571733e+003,1.730833e+003
3.573662e+003,1.663762e+003
3.575590e+003,1.585876e+003
3.577519e+003,1.633628e+003
3.579447e+003,1.703291e+003
3.581376e+003,1.715687e+003
3.583304e+003,1.708804e+003
3.585233e+003,1.683224e+003
3.587161e+003,1.700236e+003
3.589090e+003,1.752137e+003
3.591018e+003,1.737982e+003
3.592947e+003,1.694599e+003
3.594875e+003,1.672143e+003
3.596803e+003,1.660240e+003
3.598732e+003,1.650047e+003
3.600660e+003,1.665888e+003
3.602589e+003,1.710319e+003
3.604517e+003,1.733037e+003
3.606446e+003,1.723281e+003
3.608374e+003,1.597737e+003
3.610303e+003,1.503134e+003
3.612231e+003,1.605101e+003
3.614160e+003,1.686159e+003
3.616088e+003,1.694282e+003
3.618017e+003,1.701818e+003
3.619945e+003,1.711674e+003
3.621874e+003,1.688817e+003
3.623802e+003,1.659434e+003
3.625730e+003,1.657983e+003
3.627659e+003,1.657621e+003
3.629587e+003,1.640087e+003
3.631516e+003,1.651466e+003
3.633444e+003,1.697106e+003
3.635373e+003,1.700235e+003
3.637301e+003,1.679196e+003
3.639230e+003,1.667858e+003
3.641158e+003,1.659518e+003
3.643087e+003,1.652653e+003
3.645015e+003,1.639851e+003
3.646944e+003,1.618990e+003
3.648872e+003,1.640619e+003
3.650801e+003,1.685447e+003
3.652729e+003,1.669841e+003
3.654657e+003,1.659729e+003
3.656586e+003,1.746075e+003
3.658514e+003,1.768624e+003
3.660443e+003,1.682400e+003
3.662371e+003,1.670852e+003
3.664300e+003,1.720413e+003
3.666228e+003,1.706487e+003
3.668157e+003,1.678718e+003
3.670085e+003,1.693817e+003
3.672014e+003,1.698024e+003
3.673942e+003,1.672839e+003
3.675871e+003,1.664729e+003
3.677799e+003,1.673542e+003
3.679728e+003,1.667071e+003
3.681656e+003,1.654055e+003
3.683584e+003,1.635905e+003
3.685513e+003,1.636195e+003
3.687441e+003,1.667132e+003
3.689370e+003,1.691319e+003
3.691298e+003,1.702816e+003
3.693227e+003,1.663029e+003
3.695155e+003,1.628879e+003
3.697084e+003,1.713657e+003
3.699012e+003,1.749344e+003
3.700941e+003,1.644526e+003
3.702869e+003,1.610595e+003
3.704798e+003,1.663989e+003
3.706726e+003,1.675757e+003
3.708655e+003,1.660278e+003
3.710583e+003,1.621040e+003
3.712511e+003,1.603450e+003
3.714440e+003,1.636509e+003
3.716368e+003,1.647301e+003
3.718297e+003,1.630633e+003
3.720225e+003,1.640019e+003
3.722154e+003,1.650407e+003
3.724082e+003,1.614849e+003
3.726011e+003,1.591091e+003
3.727939e+003,1.602981e+003
3.729868e+003,1.645490e+003
3.731796e+003,1.706644e+003
3.733725e+003,1.650808e+003
3.735653e+003,1.566485e+003
3.737582e+003,1.568508e+003
3.739510e+003,1.590637e+003
3.741438e+003,1.611654e+003
3.743367e+003,1.634510e+003
3.745295e+003,1.654322e+003
3.747224e+003,1.627282e+003
3.749152e+003,1.594447e+003
3.751081e+003,1.602209e+003
3.753009e+003,1.620756e+003
3.754938e+003,1.645991e+003
3.756866e+003,1.636287e+003
3.758795e+003,1.604636e+003
3.760723e+003,1.639672e+003
3.762652e+003,1.667001e+003
3.764580e+003,1.591729e+003
3.766509e+003,1.561458e+003
3.768437e+003,1.616217e+003
3.770365e+003,1.644531e+003
3.772294e+003,1.647033e+003
3.774222e+003,1.633047e+003
3.776151e+003,1.620445e+003
3.778079e+003,1.625856e+003
3.780008e+003,1.621385e+003
3.781936e+003,1.602341e+003
3.783865e+003,1.624185e+003
3.785793e+003,1.657017e+003
3.787722e+003,1.627498e+003
3.789650e+003,1.600326e+003
3.791579e+003,1.610558e+003
3.793507e+003,1.627803e+003
3.795436e+003,1.646841e+003
3.797364e+003,1.645334e+003
3.799292e+003,1.630154e+003
3.801221e+003,1.590547e+003
3.803149e+003,1.579306e+003
3.805078e+003,1.625963e+003
3.807006e+003,1.652467e+003
3.808935e+003,1.658481e+003
3.810863e+003,1.652252e+003
3.812792e+003,1.644456e+003
3.814720e+003,1.646842e+003
3.816649e+003,1.642760e+003
3.818577e+003,1.625476e+003
3.820506e+003,1.631579e+003
3.822434e+003,1.647290e+003
3.824363e+003,1.642023e+003
3.826291e+003,1.638609e+003
3.828219e+003,1.657908e+003
3.830148e+003,1.622958e+003
3.832076e+003,1.537179e+003
3.834005e+003,1.564188e+003
3.835933e+003,1.622915e+003
3.837862e+003,1.625981e+003
3.839790e+003,1.609610e+003
3.841719e+003,1.580610e+003
3.843647e+003,1.598653e+003
3.845576e+003,1.637724e+003
3.847504e+003,1.595709e+003
3.849433e+003,1.557878e+003
3.851361e+003,1.593911e+003
3.853290e+003,1.613484e+003
3.855218e+003,1.610381e+003
3.857146e+003,1.623772e+003
3.859075e+003,1.632753e+003
3.861003e+003,1.593850e+003
3.862932e+003,1.574327e+003
3.864860e+003,1.603663e+003
3.866789e+003,1.637375e+003
3.868717e+003,1.663336e+003
3.870646e+003,1.641475e+003
3.872574e+003,1.614437e+003
3.874503e+003,1.605888e+003
3.876431e+003,1.611952e+003
3.878360e+003,1.628886e+003
3.880288e+003,1.599495e+003
3.882217e+003,1.565648e+003
3.884145e+003,1.587853e+003
3.886073e+003,1.611683e+003
3.888002e+003,1.624398e+003
3.889930e+003,1.619672e+003
3.891859e+003,1.605783e+003
3.893787e+003,1.610032e+003
3.895716e+003,1.600634e+003
3.897644e+003,1.551160e+003
3.899573e+003,1.531236e+003
3.901501e+003,1.544927e+003
3.903430e+003,1.569914e+003
3.905358e+003,1.590680e+003
3.907287e+003,1.590159e+003
3.909215e+003,1.585742e+003
3.911144e+003,1.580603e+003
3.913072e+003,1.569881e+003
3.915000e+003,1.554843e+003
3.916929e+003,1.525485e+003
3.918857e+003,1.521534e+003
3.920786e+003,1.573771e+003
3.922714e+003,1.596491e+003
3.924643e+003,1.589287e+003
3.926571e+003,1.543721e+003
3.928500e+003,1.515988e+003
3.930428e+003,1.548810e+003
3.932357e+003,1.572888e+003
3.934285e+003,1.579249e+003
3.936214e+003,1.533730e+003
3.938142e+003,1.494671e+003
3.940071e+003,1.534798e+003
3.941999e+003,1.565638e+003
3.943927e+003,1.567505e+003
3.945856e+003,1.581806e+003
3.947784e+003,1.584259e+003
3.949713e+003,1.512350e+003
3.951641e+003,1.488708e+003
3.953570e+003,1.552382e+003
3.955498e+003,1.562360e+003
3.957427e+003,1.534893e+003
3.959355e+003,1.518226e+003
3.961284e+003,1.516890e+003
3.963212e+003,1.550593e+003
3.965141e+003,1.524140e+003
3.967069e+003,1.461530e+003
3.968998e+003,1.492972e+003
3.970926e+003,1.539258e+003
3.972854e+003,1.548765e+003
3.974783e+003,1.543057e+003
3.976711e+003,1.528538e+003
3.978640e+003,1.540385e+003
3.980568e+003,1.538637e+003
3.982497e+003,1.461985e+003
3.984425e+003,1.440001e+003
3.986354e+003,1.499580e+003
3.988282e+003,1.513573e+003
3.990211e+003,1.506175e+003
3.992139e+003,1.502945e+003
3.994068e+003,1.501210e+003
3.995996e+003,1.500126e+003
3.997925e+003,1.502299e+003
3.999853e+003,1.504301e+003
4.001781e+003,1.501027e+003
4.003710e+003,1.496705e+003
4.005638e+003,1.494544e+003
4.007567e+003,1.466269e+003
4.009495e+003,1.431268e+003
4.011424e+003,1.435642e+003
4.013352e+003,1.446435e+003
4.015281e+003,1.449504e+003
4.017209e+003,1.457304e+003
4.019138e+003,1.464757e+003
4.021066e+003,1.458472e+003
4.022995e+003,1.450387e+003
4.024923e+003,1.445873e+003
4.026852e+003,1.445247e+003
4.028780e+003,1.445343e+003
4.030708e+003,1.427480e+003
4.032637e+003,1.422285e+003
4.034565e+003,1.456034e+003
4.036494e+003,1.445817e+003
4.038422e+003,1.405054e+003
4.040351e+003,1.422242e+003
4.042279e+003,1.444822e+003
4.044208e+003,1.438875e+003
4.046136e+003,1.427739e+003
4.048065e+003,1.415354e+003
4.049993e+003,1.413088e+003
4.051922e+003,1.410578e+003
4.053850e+003,1.399407e+003
4.055779e+003,1.400243e+003
4.057707e+003,1.409936e+003
4.059635e+003,1.394589e+003
4.061564e+003,1.388386e+003
4.063492e+003,1.418714e+003
4.065421e+003,1.442301e+003
4.067349e+003,1.451327e+003
4.069278e+003,1.416205e+003
4.071206e+003,1.385120e+003
4.073135e+003,1.401950e+003
4.075063e+003,1.406189e+003
4.076992e+003,1.399356e+003
4.078920e+003,1.408398e+003
4.080849e+003,1.421572e+003
4.082777e+003,1.433311e+003
4.084706e+003,1.437727e+003
4.086634e+003,1.434318e+003
4.088563e+003,1.414560e+003
4.090491e+003,1.407744e+003
4.092419e+003,1.435946e+003
4.094348e+003,1.441451e+003
4.096276e+003,1.427265e+003
4.098205e+003,1.422767e+003
4.100133e+003,1.418143e+003
4.102062e+003,1.403594e+003
4.103990e+003,1.413616e+003
4.105919e+003,1.439184e+003
4.107847e+003,1.444782e+003
4.109776e+003,1.446807e+003
4.111704e+003,1.456385e+003
4.113633e+003,1.449961e+003
4.115561e+003,1.438932e+003
4.117490e+003,1.458593e+003
4.119418e+003,1.470883e+003
4.121347e+003,1.461212e+003
4.123275e+003,1.438562e+003
4.125204e+003,1.419569e+003
4.127132e+003,1.441769e+003
4.129061e+003,1.461461e+003
4.130989e+003,1.466424e+003
4.132917e+003,1.419109e+003
4.134846e+003,1.374481e+003
4.136774e+003,1.437492e+003
4.138703e+003,1.479350e+003
4.140631e+003,1.467779e+003
4.142560e+003,1.444635e+003
4.144488e+003,1.425242e+003
4.146417e+003,1.437057e+003
4.148345e+003,1.424708e+003
4.150273e+003,1.382656e+003
4.152202e+003,1.408684e+003
4.154130e+003,1.444215e+003
4.156059e+003,1.423403e+003
4.157987e+003,1.437147e+003
4.159916e+003,1.478780e+003
4.161844e+003,1.444052e+003
4.163773e+003,1.413241e+003
4.165701e+003,1.453311e+003
4.167630e+003,1.465924e+003
4.169558e+003,1.456236e+003
4.171487e+003,1.452446e+003
4.173415e+003,1.456412e+003
4.175344e+003,1.470734e+003
4.177272e+003,1.459261e+003
4.179201e+003,1.434418e+003
4.181129e+003,1.417664e+003
4.183058e+003,1.415161e+003
4.184986e+003,1.427256e+003
4.186915e+003,1.437106e+003
4.188843e+003,1.445980e+003
4.190771e+003,1.461364e+003
4.192700e+003,1.456026e+003
4.194628e+003,1.429155e+003
4.196557e+003,1.423644e+003
4.198485e+003,1.429934e+003
4.200414e+003,1.445544e+003
4.202342e+003,1.448576e+003
4.204271e+003,1.442384e+003
4.206199e+003,1.448960e+003
4.208127e+003,1.459592e+003
4.210056e+003,1.471960e+003
4.211984e+003,1.474258e+003
4.213913e+003,1.467801e+003
4.215841e+003,1.461199e+003
4.217770e+003,1.431384e+003
4.219698e+003,1.365052e+003
4.221627e+003,1.385171e+003
4.223555e+003,1.432611e+003
4.225484e+003,1.443902e+003
4.227412e+003,1.448889e+003
4.229341e+003,1.452746e+003
4.231269e+003,1.470004e+003
4.233198e+003,1.480212e+003
4.235126e+003,1.461752e+003
4.237055e+003,1.457088e+003
4.238983e+003,1.460165e+003
4.240912e+003,1.448223e+003
4.242840e+003,1.445383e+003
4.244769e+003,1.462461e+003
4.246697e+003,1.469391e+003
4.248625e+003,1.460370e+003
4.250554e+003,1.438804e+003
