1.159199e+002,1.372056e+003
1.178484e+002,1.442456e+003
1.197769e+002,1.490952e+003
1.217053e+002,1.516390e+003
1.236338e+002,1.497924e+003
1.255623e+002,1.407113e+003
1.274907e+002,1.288579e+003
1.294192e+002,1.181849e+003
1.313477e+002,1.083217e+003
1.332761e+002,1.002574e+003
1.352046e+002,9.434818e+002
1.371331e+002,9.080827e+002
1.390615e+002,8.871208e+002
1.409900e+002,8.785040e+002
1.429185e+002,8.830886e+002
1.448469e+002,9.082509e+002
1.467754e+002,9.712664e+002
1.487039e+002,1.036146e+003
1.506323e+002,1.096403e+003
1.525608e+002,1.161104e+003
1.544893e+002,1.182753e+003
1.564177e+002,1.153628e+003
1.583462e+002,1.082569e+003
1.602747e+002,9.940479e+002
1.622031e+002,8.758416e+002
1.641316e+002,7.580317e+002
1.660601e+002,6.535259e+002
1.679885e+002,5.555528e+002
1.699170e+002,4.808952e+002
1.718455e+002,4.322664e+002
1.737739e+002,4.103633e+002
1.757024e+002,3.949165e+002
1.776309e+002,3.900469e+002
1.795593e+002,3.886969e+002
1.814878e+002,3.849418e+002
1.834163e+002,3.801599e+002
1.853447e+002,3.716199e+002
1.872732e+002,3.570522e+002
1.892017e+002,3.371703e+002
1.911301e+002,3.187941e+002
1.930586e+002,3.014738e+002
1.949871e+002,2.864745e+002
1.969155e+002,2.763582e+002
1.988440e+002,2.756584e+002
2.007725e+002,2.746678e+002
2.027009e+002,2.694921e+002
2.046294e+002,2.596144e+002
2.065579e+002,2.520257e+002
2.084864e+002,2.483896e+002
2.104148e+002,2.473402e+002
2.123433e+002,2.459625e+002
2.142718e+002,2.434517e+002
2.162002e+002,2.412412e+002
2.181287e+002,2.396887e+002
2.200572e+002,2.385656e+002
2.219856e+002,2.386796e+002
2.239141e+002,2.398759e+002
2.258426e+002,2.424510e+002
2.277710e+002,2.468679e+002
2.296995e+002,2.563260e+002
2.316280e+002,2.643450e+002
2.335564e+002,2.682010e+002
2.354849e+002,2.654783e+002
2.374134e+002,2.616562e+002
2.393418e+002,2.546128e+002
2.412703e+002,2.464216e+002
2.431988e+002,2.415009e+002
2.451272e+002,2.422848e+002
2.470557e+002,2.448815e+002
2.489842e+002,2.476728e+002
2.509126e+002,2.505840e+002
2.528411e+002,2.536401e+002
2.547696e+002,2.579264e+002
2.566980e+002,2.625548e+002
2.586265e+002,2.648280e+002
2.605550e+002,2.647031e+002
2.624834e+002,2.623348e+002
2.644119e+002,2.564960e+002
2.663404e+002,2.460299e+002
2.682688e+002,2.372165e+002
2.701973e+002,2.316778e+002
2.721258e+002,2.288099e+002
2.740542e+002,2.272665e+002
2.759827e+002,2.255670e+002
2.779112e+002,2.259063e+002
2.798396e+002,2.310240e+002
2.817681e+002,2.420797e+002
2.836966e+002,2.503233e+002
2.856250e+002,2.530626e+002
2.875535e+002,2.514410e+002
2.894820e+002,2.493836e+002
2.914104e+002,2.482888e+002
2.933389e+002,2.460326e+002
2.952674e+002,2.405203e+002
2.971958e+002,2.301589e+002
2.991243e+002,2.241465e+002
3.010528e+002,2.265063e+002
3.029813e+002,2.343422e+002
3.049097e+002,2.384333e+002
3.068382e+002,2.361871e+002
3.087667e+002,2.328678e+002
3.106951e+002,2.302462e+002
3.126236e+002,2.276750e+002
3.145521e+002,2.278574e+002
3.164805e+002,2.331762e+002
3.184090e+002,2.410357e+002
3.203375e+002,2.458230e+002
3.222659e+002,2.450621e+002
3.241944e+002,2.450726e+002
3.261229e+002,2.480714e+002
3.280513e+002,2.548700e+002
3.299798e+002,2.631595e+002
3.319083e+002,2.734702e+002
3.338367e+002,2.849427e+002
3.357652e+002,2.973499e+002
3.376937e+002,3.151534e+002
3.396221e+002,3.256276e+002
3.415506e+002,3.228984e+002
3.434791e+002,3.030596e+002
3.454075e+002,2.887549e+002
3.473360e+002,2.842525e+002
3.492645e+002,2.830191e+002
3.511929e+002,2.791164e+002
3.531214e+002,2.708663e+002
3.550499e+002,2.631120e+002
3.569783e+002,2.565146e+002
3.589068e+002,2.512489e+002
3.608353e+002,2.481173e+002
3.627637e+002,2.473681e+002
3.646922e+002,2.487017e+002
3.666207e+002,2.522348e+002
3.685491e+002,2.603690e+002
3.704776e+002,2.655344e+002
3.724061e+002,2.643761e+002
3.743345e+002,2.591092e+002
3.762630e+002,2.574918e+002
3.781915e+002,2.597445e+002
3.801199e+002,2.656130e+002
3.820484e+002,2.758729e+002
3.839769e+002,2.951086e+002
3.859053e+002,3.067055e+002
3.878338e+002,3.059997e+002
3.897623e+002,2.980799e+002
3.916907e+002,2.912860e+002
3.936192e+002,2.850406e+002
3.955477e+002,2.807433e+002
3.974761e+002,2.786737e+002
3.994046e+002,2.791207e+002
4.013331e+002,2.809019e+002
4.032615e+002,2.839192e+002
4.051900e+002,2.884332e+002
4.071185e+002,2.948809e+002
4.090469e+002,3.040480e+002
4.109754e+002,3.132011e+002
4.129039e+002,3.237135e+002
4.148323e+002,3.346532e+002
4.167608e+002,3.396521e+002
4.186893e+002,3.359039e+002
4.206177e+002,3.291208e+002
4.225462e+002,3.211685e+002
4.244747e+002,3.117189e+002
4.264032e+002,3.028156e+002
4.283316e+002,2.921404e+002
4.302601e+002,2.826140e+002
4.321886e+002,2.798994e+002
4.341170e+002,2.857253e+002
4.360455e+002,2.943305e+002
4.379740e+002,3.059573e+002
4.399024e+002,3.202525e+002
4.418309e+002,3.307218e+002
4.437594e+002,3.334597e+002
4.456878e+002,3.345984e+002
4.476163e+002,3.384303e+002
4.495448e+002,3.453911e+002
4.514732e+002,3.525865e+002
4.534017e+002,3.624206e+002
4.553302e+002,3.721381e+002
4.572586e+002,3.745541e+002
4.591871e+002,3.603503e+002
4.611156e+002,3.476856e+002
4.630440e+002,3.430745e+002
4.649725e+002,3.463666e+002
4.669010e+002,3.490977e+002
4.688294e+002,3.484973e+002
4.707579e+002,3.479794e+002
4.726864e+002,3.502149e+002
4.746148e+002,3.573501e+002
4.765433e+002,3.647402e+002
4.784718e+002,3.705553e+002
4.804002e+002,3.764080e+002
4.823287e+002,3.865440e+002
4.842572e+002,4.073503e+002
4.861856e+002,4.243341e+002
4.881141e+002,4.304032e+002
4.900426e+002,4.209616e+002
4.919710e+002,4.166912e+002
4.938995e+002,4.211927e+002
4.958280e+002,4.287993e+002
4.977564e+002,4.354870e+002
4.996849e+002,4.430697e+002
5.016134e+002,4.446375e+002
5.035418e+002,4.349759e+002
5.054703e+002,4.173583e+002
5.073988e+002,4.055858e+002
5.093272e+002,4.003120e+002
5.112557e+002,3.990108e+002
5.131842e+002,4.021782e+002
5.151127e+002,4.094026e+002
5.170411e+002,4.163695e+002
5.189696e+002,4.269979e+002
5.208981e+002,4.345075e+002
5.228265e+002,4.317893e+002
5.247550e+002,4.120840e+002
5.266835e+002,3.961797e+002
5.286119e+002,3.876119e+002
5.305404e+002,3.849055e+002
5.324689e+002,3.855397e+002
5.343973e+002,3.920865e+002
5.363258e+002,3.991336e+002
5.382543e+002,4.061293e+002
5.401827e+002,4.129279e+002
5.421112e+002,4.155209e+002
5.440397e+002,4.103341e+002
5.459681e+002,4.032502e+002
5.478966e+002,3.973794e+002
5.498251e+002,3.923461e+002
5.517535e+002,3.902475e+002
5.536820e+002,3.890181e+002
5.556105e+002,3.913209e+002
5.575389e+002,4.025952e+002
5.594674e+002,4.262302e+002
5.613959e+002,4.507381e+002
5.633243e+002,4.779442e+002
5.652528e+002,5.054061e+002
5.671813e+002,5.186490e+002
5.691097e+002,5.025747e+002
5.710382e+002,4.844700e+002
5.729667e+002,4.718394e+002
5.748951e+002,4.644692e+002
5.768236e+002,4.684190e+002
5.787521e+002,4.912021e+002
5.806805e+002,5.216833e+002
5.826090e+002,5.536450e+002
5.845375e+002,5.987297e+002
5.864659e+002,6.200590e+002
5.883944e+002,6.053318e+002
5.903229e+002,5.668084e+002
5.922513e+002,5.278901e+002
5.941798e+002,4.863254e+002
5.961083e+002,4.495035e+002
5.980367e+002,4.189149e+002
5.999652e+002,3.943128e+002
6.018937e+002,3.784411e+002
6.038221e+002,3.700654e+002
6.057506e+002,3.707695e+002
6.076791e+002,3.858357e+002
6.096075e+002,4.152323e+002
6.115360e+002,4.406870e+002
6.134645e+002,4.609060e+002
6.153929e+002,4.748524e+002
6.173214e+002,4.824153e+002
6.192499e+002,4.845142e+002
6.211783e+002,4.775569e+002
6.231068e+002,4.552871e+002
6.250353e+002,4.264959e+002
6.269637e+002,4.045759e+002
6.288922e+002,3.906064e+002
6.308207e+002,3.800066e+002
6.327491e+002,3.701418e+002
6.346776e+002,3.617577e+002
6.366061e+002,3.595111e+002
6.385345e+002,3.690870e+002
6.404630e+002,3.786692e+002
6.423915e+002,3.850593e+002
6.443199e+002,3.881694e+002
6.462484e+002,3.888968e+002
6.481769e+002,3.852520e+002
6.501053e+002,3.813830e+002
6.520338e+002,3.797545e+002
6.539623e+002,3.816071e+002
6.558907e+002,3.826518e+002
6.578192e+002,3.810092e+002
6.597477e+002,3.796739e+002
6.616761e+002,3.813035e+002
6.636046e+002,3.855984e+002
6.655331e+002,3.924440e+002
6.674615e+002,4.034054e+002
6.693900e+002,4.164303e+002
6.713185e+002,4.290867e+002
6.732469e+002,4.483272e+002
6.751754e+002,4.588096e+002
6.771039e+002,4.530528e+002
6.790323e+002,4.370292e+002
6.809608e+002,4.267065e+002
6.828893e+002,4.211549e+002
6.848177e+002,4.231583e+002
6.867462e+002,4.365341e+002
6.886747e+002,4.604575e+002
6.906031e+002,4.790060e+002
6.925316e+002,4.922536e+002
6.944601e+002,5.003686e+002
6.963885e+002,5.030060e+002
6.983170e+002,5.001987e+002
7.002455e+002,4.923640e+002
7.021740e+002,4.751434e+002
7.041024e+002,4.569057e+002
7.060309e+002,4.421155e+002
7.079594e+002,4.309595e+002
7.098878e+002,4.227914e+002
7.118163e+002,4.164007e+002
7.137448e+002,4.131260e+002
7.156732e+002,4.152279e+002
7.176017e+002,4.230691e+002
7.195302e+002,4.317160e+002
7.214586e+002,4.345642e+002
7.233871e+002,4.411164e+002
7.253156e+002,4.615367e+002
7.272440e+002,5.025181e+002
7.291725e+002,5.476703e+002
7.311010e+002,6.013474e+002
7.330294e+002,6.566522e+002
7.349579e+002,6.945170e+002
7.368864e+002,6.931896e+002
7.388149e+002,7.261720e+002
7.407433e+002,8.507712e+002
7.426718e+002,1.024420e+003
7.446003e+002,1.154879e+003
7.465287e+002,1.263475e+003
7.484572e+002,1.294819e+003
7.503857e+002,1.196333e+003
7.523141e+002,1.000362e+003
7.542426e+002,8.490240e+002
7.561711e+002,7.545215e+002
7.580995e+002,6.836141e+002
7.600280e+002,6.227871e+002
7.619565e+002,5.728204e+002
7.638849e+002,5.443879e+002
7.658134e+002,5.616760e+002
7.677419e+002,5.781825e+002
7.696703e+002,5.801422e+002
7.715988e+002,5.667407e+002
7.735273e+002,5.488487e+002
7.754557e+002,5.226011e+002
7.773842e+002,4.961220e+002
7.793127e+002,4.712408e+002
7.812411e+002,4.481841e+002
7.831696e+002,4.337684e+002
7.850981e+002,4.317863e+002
7.870266e+002,4.363716e+002
7.889550e+002,4.481505e+002
7.908835e+002,4.693846e+002
7.928120e+002,4.830889e+002
7.947404e+002,4.864317e+002
7.966689e+002,4.845610e+002
7.985974e+002,4.787074e+002
8.005258e+002,4.686902e+002
8.024543e+002,4.606872e+002
8.043828e+002,4.549656e+002
8.063112e+002,4.517739e+002
8.082397e+002,4.522937e+002
8.101682e+002,4.585460e+002
8.120966e+002,4.611809e+002
8.140251e+002,4.544309e+002
8.159536e+002,4.486091e+002
8.178820e+002,4.515188e+002
8.198105e+002,4.632483e+002
8.217390e+002,4.761189e+002
8.236674e+002,4.884190e+002
8.255959e+002,5.021452e+002
8.275244e+002,5.198882e+002
8.294528e+002,5.467659e+002
8.313813e+002,5.638690e+002
8.333098e+002,5.630701e+002
8.352382e+002,5.584775e+002
8.371667e+002,5.616742e+002
8.390952e+002,5.726532e+002
8.410236e+002,5.821089e+002
8.429521e+002,5.818099e+002
8.448806e+002,5.845897e+002
8.468090e+002,5.985447e+002
8.487375e+002,6.247005e+002
8.506660e+002,6.609297e+002
8.525944e+002,7.103184e+002
8.545229e+002,7.663865e+002
8.564514e+002,8.223729e+002
8.583798e+002,8.770977e+002
8.603083e+002,9.471955e+002
8.622368e+002,1.078407e+003
8.641652e+002,1.186071e+003
8.660937e+002,1.216541e+003
8.680222e+002,1.159995e+003
8.699506e+002,1.067443e+003
8.718791e+002,8.994207e+002
8.738076e+002,7.341055e+002
8.757360e+002,6.239393e+002
8.776645e+002,5.747910e+002
8.795930e+002,5.373586e+002
8.815214e+002,5.134906e+002
8.834499e+002,4.972550e+002
8.853784e+002,4.866765e+002
8.873068e+002,4.818429e+002
8.892353e+002,4.755894e+002
8.911638e+002,4.604626e+002
8.930922e+002,4.493470e+002
8.950207e+002,4.506966e+002
8.969492e+002,4.665840e+002
8.988776e+002,4.757224e+002
9.008061e+002,4.703720e+002
9.027346e+002,4.656232e+002
9.046630e+002,4.706360e+002
9.065915e+002,4.832096e+002
9.085200e+002,4.932048e+002
9.104484e+002,4.982870e+002
9.123769e+002,5.029615e+002
9.143054e+002,5.121724e+002
9.162338e+002,5.254971e+002
9.181623e+002,5.273820e+002
9.200908e+002,5.068039e+002
9.220192e+002,4.879816e+002
9.239477e+002,4.788377e+002
9.258762e+002,4.774398e+002
9.278046e+002,4.764960e+002
9.297331e+002,4.752316e+002
9.316616e+002,4.748176e+002
9.335900e+002,4.758643e+002
9.355185e+002,4.778721e+002
9.374470e+002,4.797432e+002
9.393754e+002,4.825022e+002
9.413039e+002,4.838355e+002
9.432324e+002,4.795644e+002
9.451608e+002,4.746547e+002
9.470893e+002,4.805602e+002
9.490178e+002,5.022356e+002
9.509462e+002,5.199536e+002
9.528747e+002,5.274269e+002
9.548032e+002,5.292148e+002
9.567316e+002,5.308927e+002
9.586601e+002,5.338480e+002
9.605886e+002,5.317808e+002
9.625170e+002,5.169198e+002
9.644455e+002,5.011498e+002
9.663740e+002,4.952305e+002
9.683024e+002,5.035088e+002
9.702309e+002,5.116318e+002
9.721594e+002,5.184449e+002
9.740878e+002,5.259062e+002
9.760163e+002,5.370913e+002
9.779448e+002,5.515074e+002
9.798733e+002,5.605702e+002
9.818018e+002,5.568345e+002
9.837302e+002,5.546653e+002
9.856587e+002,5.553573e+002
9.875872e+002,5.584421e+002
9.895156e+002,5.875063e+002
9.914441e+002,6.303158e+002
9.933726e+002,7.107479e+002
9.953010e+002,8.769711e+002
9.972295e+002,1.092456e+003
9.991580e+002,1.228640e+003
1.001086e+003,1.289817e+003
1.003015e+003,1.270161e+003
1.004943e+003,1.102852e+003
1.006872e+003,8.705574e+002
1.008800e+003,7.005546e+002
1.010729e+003,6.073192e+002
1.012657e+003,5.460458e+002
1.014586e+003,5.186396e+002
1.016514e+003,5.097952e+002
1.018443e+003,5.042258e+002
1.020371e+003,5.027140e+002
1.022300e+003,5.030000e+002
1.024228e+003,5.083793e+002
1.026156e+003,5.131410e+002
1.028085e+003,5.121198e+002
1.030013e+003,5.060816e+002
1.031942e+003,5.020906e+002
1.033870e+003,5.017759e+002
1.035799e+003,5.028579e+002
1.037727e+003,5.045512e+002
1.039656e+003,5.067206e+002
1.041584e+003,5.084865e+002
1.043513e+003,5.083966e+002
1.045441e+003,5.094314e+002
1.047370e+003,5.092005e+002
1.049298e+003,5.110168e+002
1.051227e+003,5.234011e+002
1.053155e+003,5.493557e+002
1.055083e+003,5.762615e+002
1.057012e+003,6.074037e+002
1.058940e+003,6.341625e+002
1.060869e+003,6.469105e+002
1.062797e+003,6.431846e+002
1.064726e+003,6.401282e+002
1.066654e+003,6.466151e+002
1.068583e+003,6.487091e+002
1.070511e+003,6.360139e+002
1.072440e+003,6.065773e+002
1.074368e+003,5.834934e+002
1.076297e+003,5.686735e+002
1.078225e+003,5.576743e+002
1.080154e+003,5.477314e+002
1.082082e+003,5.412091e+002
1.084010e+003,5.425372e+002
1.085939e+003,5.512517e+002
1.087867e+003,5.695266e+002
1.089796e+003,6.099698e+002
1.091724e+003,6.546088e+002
1.093653e+003,6.810428e+002
1.095581e+003,6.830892e+002
1.097510e+003,6.852061e+002
1.099438e+003,6.817935e+002
1.101367e+003,6.859055e+002
1.103295e+003,7.104589e+002
1.105224e+003,7.580871e+002
1.107152e+003,7.952736e+002
1.109081e+003,8.405909e+002
1.111009e+003,8.570854e+002
1.112938e+003,8.130496e+002
1.114866e+003,7.319825e+002
1.116794e+003,6.662863e+002
1.118723e+003,6.165615e+002
1.120651e+003,5.836440e+002
1.122580e+003,5.789221e+002
1.124508e+003,5.848615e+002
1.126437e+003,5.836563e+002
1.128365e+003,5.708931e+002
1.130294e+003,5.653923e+002
1.132222e+003,5.708984e+002
1.134151e+003,5.809513e+002
1.136079e+003,5.948232e+002
1.138008e+003,6.119490e+002
1.139936e+003,6.228924e+002
1.141865e+003,6.237027e+002
1.143793e+003,6.239271e+002
1.145721e+003,6.244402e+002
1.147650e+003,6.266748e+002
1.149578e+003,6.352081e+002
1.151507e+003,6.536260e+002
1.153435e+003,6.615344e+002
1.155364e+003,6.464748e+002
1.157292e+003,6.256104e+002
1.159221e+003,6.094705e+002
1.161149e+003,5.990504e+002
1.163078e+003,5.880869e+002
1.165006e+003,5.712642e+002
1.166935e+003,5.603677e+002
1.168863e+003,5.638347e+002
1.170792e+003,5.757755e+002
1.172720e+003,5.790264e+002
1.174648e+003,5.694870e+002
1.176577e+003,5.627256e+002
1.178505e+003,5.627763e+002
1.180434e+003,5.660181e+002
1.182362e+003,5.692498e+002
1.184291e+003,5.724497e+002
1.186219e+003,5.769651e+002
1.188148e+003,5.787408e+002
1.190076e+003,5.881833e+002
1.192005e+003,6.166883e+002
1.193933e+003,6.562935e+002
1.195862e+003,6.800317e+002
1.197790e+003,6.791394e+002
1.199719e+003,6.756628e+002
1.201647e+003,6.709488e+002
1.203575e+003,6.648355e+002
1.205504e+003,6.554071e+002
1.207432e+003,6.414280e+002
1.209361e+003,6.343894e+002
1.211289e+003,6.294293e+002
1.213218e+003,6.373497e+002
1.215146e+003,6.605037e+002
1.217075e+003,7.008774e+002
1.219003e+003,7.720303e+002
1.220932e+003,8.930900e+002
1.222860e+003,9.755237e+002
1.224789e+003,9.847786e+002
1.226717e+003,9.534910e+002
1.228646e+003,8.907156e+002
1.230574e+003,7.900611e+002
1.232502e+003,7.198706e+002
1.234431e+003,6.969822e+002
1.236359e+003,6.873713e+002
1.238288e+003,6.886373e+002
1.240216e+003,6.961965e+002
1.242145e+003,7.017114e+002
1.244073e+003,7.083455e+002
1.246002e+003,7.056859e+002
1.247930e+003,6.900955e+002
1.249859e+003,6.680272e+002
1.251787e+003,6.360039e+002
1.253716e+003,5.991776e+002
1.255644e+003,5.824891e+002
1.257573e+003,5.940760e+002
1.259501e+003,6.108912e+002
1.261429e+003,6.267811e+002
1.263358e+003,6.422424e+002
1.265286e+003,6.587351e+002
1.267215e+003,6.770779e+002
1.269143e+003,6.897321e+002
1.271072e+003,6.956549e+002
1.273000e+003,6.952169e+002
1.274929e+003,6.856639e+002
1.276857e+003,6.696816e+002
1.278786e+003,6.561581e+002
1.280714e+003,6.456667e+002
1.282643e+003,6.373370e+002
1.284571e+003,6.286739e+002
1.286500e+003,6.244550e+002
1.288428e+003,6.306965e+002
1.290356e+003,6.465856e+002
1.292285e+003,6.593309e+002
1.294213e+003,6.676670e+002
1.296142e+003,6.743762e+002
1.298070e+003,6.662236e+002
1.299999e+003,6.653172e+002
1.301927e+003,7.062723e+002
1.303856e+003,7.930886e+002
1.305784e+003,8.508137e+002
1.307713e+003,8.545989e+002
1.309641e+003,8.446339e+002
1.311570e+003,8.254916e+002
1.313498e+003,8.074299e+002
1.315427e+003,8.201071e+002
1.317355e+003,8.826667e+002
1.319283e+003,9.346426e+002
1.321212e+003,9.519805e+002
1.323140e+003,9.755425e+002
1.325069e+003,1.042255e+003
1.326997e+003,1.145683e+003
1.328926e+003,1.215570e+003
1.330854e+003,1.258449e+003
1.332783e+003,1.261946e+003
1.334711e+003,1.181790e+003
1.336640e+003,1.090657e+003
1.338568e+003,1.046340e+003
1.340497e+003,1.048662e+003
1.342425e+003,1.123601e+003
1.344354e+003,1.317287e+003
1.346282e+003,1.501083e+003
1.348210e+003,1.684193e+003
1.350139e+003,1.794079e+003
1.352068e+003,1.717456e+003
1.353996e+003,1.441037e+003
1.355924e+003,1.189062e+003
1.357853e+003,9.780740e+002
1.359781e+003,8.184404e+002
1.361710e+003,7.247750e+002
1.363638e+003,6.797434e+002
1.365567e+003,6.514375e+002
1.367495e+003,6.448791e+002
1.369424e+003,6.419473e+002
1.371352e+003,6.446599e+002
1.373281e+003,6.475292e+002
1.375209e+003,6.475049e+002
1.377138e+003,6.458093e+002
1.379066e+003,6.461841e+002
1.380995e+003,6.492785e+002
1.382923e+003,6.528129e+002
1.384851e+003,6.579023e+002
1.386780e+003,6.617020e+002
1.388708e+003,6.607048e+002
1.390637e+003,6.564555e+002
1.392565e+003,6.558367e+002
1.394494e+003,6.595314e+002
1.396422e+003,6.649860e+002
1.398351e+003,6.676999e+002
1.400279e+003,6.758165e+002
1.402208e+003,6.935217e+002
1.404136e+003,7.208387e+002
1.406065e+003,7.587687e+002
1.407993e+003,8.055701e+002
1.409922e+003,8.682007e+002
1.411850e+003,9.776426e+002
1.413778e+003,1.077246e+003
1.415707e+003,1.136655e+003
1.417635e+003,1.155269e+003
1.419564e+003,1.117277e+003
1.421492e+003,9.830625e+002
1.423421e+003,8.694101e+002
1.425349e+003,7.985941e+002
1.427278e+003,7.546267e+002
1.429206e+003,7.286170e+002
1.431135e+003,7.202064e+002
1.433063e+003,7.190119e+002
1.434992e+003,7.222764e+002
1.436920e+003,7.364128e+002
1.438849e+003,7.751054e+002
1.440777e+003,8.145992e+002
1.442705e+003,8.348845e+002
1.444634e+003,8.368318e+002
1.446562e+003,8.372751e+002
1.448491e+003,8.431620e+002
1.450419e+003,8.364614e+002
1.452348e+003,8.056840e+002
1.454276e+003,7.678176e+002
1.456205e+003,7.328647e+002
1.458133e+003,7.018632e+002
1.460062e+003,6.819736e+002
1.461990e+003,6.747233e+002
1.463919e+003,6.746755e+002
1.465847e+003,6.824583e+002
1.467776e+003,6.953438e+002
1.469704e+003,7.078397e+002
1.471632e+003,7.235414e+002
1.473561e+003,7.611146e+002
1.475489e+003,8.330983e+002
1.477418e+003,8.858414e+002
1.479346e+003,9.073735e+002
1.481275e+003,9.010530e+002
1.483203e+003,8.555554e+002
1.485132e+003,7.836613e+002
1.487060e+003,7.354147e+002
1.488989e+003,7.167719e+002
1.490917e+003,7.054286e+002
1.492846e+003,7.012332e+002
1.494774e+003,6.995199e+002
1.496703e+003,7.001385e+002
1.498631e+003,7.016983e+002
1.500559e+003,6.987183e+002
1.502488e+003,6.869561e+002
1.504416e+003,6.829193e+002
1.506345e+003,6.959728e+002
1.508273e+003,7.069263e+002
1.510202e+003,7.062770e+002
1.512130e+003,6.989802e+002
1.514059e+003,6.949011e+002
1.515987e+003,6.966224e+002
1.517916e+003,6.942715e+002
1.519844e+003,6.776425e+002
1.521773e+003,6.706981e+002
1.523701e+003,6.884502e+002
1.525630e+003,7.155715e+002
1.527558e+003,7.311650e+002
1.529486e+003,7.331713e+002
1.531415e+003,7.390519e+002
1.533343e+003,7.501893e+002
1.535272e+003,7.623555e+002
1.537200e+003,7.525227e+002
1.539129e+003,7.607301e+002
1.541057e+003,8.339758e+002
1.542986e+003,9.649951e+002
1.544914e+003,1.088148e+003
1.546843e+003,1.220766e+003
1.548771e+003,1.304015e+003
1.550700e+003,1.316060e+003
1.552628e+003,1.285480e+003
1.554557e+003,1.203927e+003
1.556485e+003,1.095415e+003
1.558413e+003,1.016006e+003
1.560342e+003,9.619487e+002
1.562270e+003,9.664340e+002
1.564199e+003,1.080152e+003
1.566127e+003,1.189101e+003
1.568056e+003,1.258550e+003
1.569984e+003,1.279262e+003
1.571913e+003,1.227204e+003
1.573841e+003,1.106197e+003
1.575770e+003,1.001459e+003
1.577698e+003,9.216765e+002
1.579627e+003,8.603525e+002
1.581555e+003,8.211030e+002
1.583484e+003,7.947266e+002
1.585412e+003,7.754506e+002
1.587340e+003,7.623777e+002
1.589269e+003,7.515945e+002
1.591197e+003,7.423056e+002
1.593126e+003,7.378681e+002
1.595054e+003,7.395798e+002
1.596983e+003,7.456780e+002
1.598911e+003,7.552796e+002
1.600840e+003,7.681465e+002
1.602768e+003,7.869886e+002
1.604697e+003,8.129141e+002
1.606625e+003,8.263320e+002
1.608554e+003,8.213463e+002
1.610482e+003,8.104526e+002
1.612411e+003,7.932803e+002
1.614339e+003,7.765181e+002
1.616267e+003,7.676697e+002
1.618196e+003,7.656918e+002
1.620124e+003,7.595256e+002
1.622053e+003,7.476444e+002
1.623981e+003,7.358696e+002
1.625910e+003,7.229401e+002
1.627838e+003,7.125516e+002
1.629767e+003,7.064072e+002
1.631695e+003,7.035570e+002
1.633624e+003,7.030075e+002
1.635552e+003,7.050583e+002
1.637481e+003,7.060369e+002
1.639409e+003,7.049375e+002
1.641338e+003,7.044443e+002
1.643266e+003,7.058112e+002
1.645194e+003,7.079985e+002
1.647123e+003,7.095561e+002
1.649051e+003,7.109857e+002
1.650980e+003,7.157084e+002
1.652908e+003,7.256992e+002
1.654837e+003,7.320544e+002
1.656765e+003,7.319732e+002
1.658694e+003,7.296589e+002
1.660622e+003,7.234736e+002
1.662551e+003,7.179796e+002
1.664479e+003,7.215704e+002
1.666408e+003,7.355061e+002
1.668336e+003,7.388787e+002
1.670265e+003,7.263693e+002
1.672193e+003,7.149813e+002
1.674121e+003,7.028143e+002
1.676050e+003,6.969454e+002
1.677978e+003,7.090279e+002
1.679907e+003,7.270677e+002
1.681835e+003,7.223364e+002
1.683764e+003,6.855852e+002
1.685692e+003,6.700012e+002
1.687621e+003,6.895983e+002
1.689549e+003,7.104639e+002
1.691478e+003,7.342628e+002
1.693406e+003,7.493890e+002
1.695335e+003,7.414161e+002
1.697263e+003,7.188739e+002
1.699192e+003,7.093716e+002
1.701120e+003,7.158636e+002
1.703048e+003,7.247657e+002
1.704977e+003,7.396272e+002
1.706905e+003,7.500530e+002
1.708834e+003,7.526042e+002
1.710762e+003,7.497396e+002
1.712691e+003,7.429995e+002
1.714619e+003,7.327466e+002
1.716548e+003,7.191017e+002
1.718476e+003,6.976862e+002
1.720405e+003,6.891406e+002
1.722333e+003,7.040988e+002
1.724262e+003,7.208450e+002
1.726190e+003,7.360544e+002
1.728119e+003,7.474044e+002
1.730047e+003,7.543175e+002
1.731975e+003,7.557361e+002
1.733904e+003,7.413481e+002
1.735832e+003,7.000952e+002
1.737761e+003,6.814164e+002
1.739689e+003,7.103873e+002
1.741618e+003,7.362470e+002
1.743546e+003,7.418522e+002
1.745475e+003,7.368721e+002
1.747403e+003,7.251768e+002
1.749332e+003,7.091444e+002
1.751260e+003,7.099044e+002
1.753189e+003,7.324865e+002
1.755117e+003,7.507652e+002
1.757046e+003,7.654985e+002
1.758974e+003,7.691754e+002
1.760902e+003,7.479263e+002
1.762831e+003,7.249150e+002
1.764759e+003,7.228824e+002
1.766688e+003,7.373761e+002
1.768616e+003,7.481974e+002
1.770545e+003,7.541123e+002
1.772473e+003,7.594260e+002
1.774402e+003,7.642888e+002
1.776330e+003,7.682812e+002
1.778259e+003,7.711515e+002
1.780187e+003,7.729285e+002
1.782116e+003,7.734290e+002
1.784044e+003,7.731432e+002
1.785973e+003,7.757748e+002
1.787901e+003,7.825125e+002
1.789829e+003,7.742783e+002
1.791758e+003,7.381036e+002
1.793686e+003,7.121702e+002
1.795615e+003,7.140157e+002
1.797543e+003,7.259443e+002
1.799472e+003,7.389756e+002
1.801400e+003,7.518391e+002
1.803329e+003,7.618669e+002
1.805257e+003,7.690573e+002
1.807186e+003,7.760001e+002
1.809114e+003,7.836702e+002
1.811043e+003,7.885273e+002
1.812971e+003,7.891530e+002
1.814900e+003,7.871904e+002
1.816828e+003,7.820942e+002
1.818756e+003,7.759274e+002
1.820685e+003,7.731292e+002
1.822613e+003,7.726669e+002
1.824542e+003,7.638381e+002
1.826470e+003,7.404686e+002
1.828399e+003,7.294866e+002
1.830327e+003,7.457583e+002
1.832256e+003,7.608569e+002
1.834184e+003,7.655205e+002
1.836113e+003,7.638533e+002
1.838041e+003,7.594362e+002
1.839970e+003,7.523297e+002
1.841898e+003,7.393851e+002
1.843827e+003,7.129680e+002
1.845755e+003,7.102974e+002
1.847684e+003,7.602809e+002
1.849612e+003,7.912524e+002
1.851541e+003,7.695053e+002
1.853469e+003,7.469628e+002
1.855397e+003,7.612632e+002
1.857326e+003,7.921111e+002
1.859254e+003,8.054296e+002
1.861183e+003,8.008711e+002
1.863111e+003,7.995247e+002
1.865040e+003,8.098344e+002
1.866968e+003,8.054290e+002
1.868897e+003,7.678648e+002
1.870825e+003,7.383715e+002
1.872754e+003,7.287968e+002
1.874682e+003,7.326528e+002
1.876611e+003,7.543844e+002
1.878539e+003,7.837303e+002
1.880468e+003,7.866265e+002
1.882396e+003,7.609260e+002
1.884324e+003,7.459813e+002
1.886253e+003,7.479008e+002
1.888181e+003,7.502911e+002
1.890110e+003,7.511193e+002
1.892038e+003,7.486861e+002
1.893967e+003,7.335354e+002
1.895895e+003,7.213032e+002
1.897824e+003,7.352755e+002
1.899752e+003,7.649026e+002
1.901681e+003,7.741428e+002
1.903609e+003,7.609297e+002
1.905538e+003,7.532920e+002
1.907466e+003,7.549359e+002
1.909395e+003,7.621260e+002
1.911323e+003,7.785102e+002
1.913251e+003,7.947370e+002
1.915180e+003,8.122885e+002
1.917108e+003,8.221682e+002
1.919037e+003,8.021473e+002
1.920965e+003,7.606703e+002
1.922894e+003,7.543367e+002
1.924822e+003,7.986915e+002
1.926751e+003,8.180667e+002
1.928679e+003,7.844677e+002
1.930608e+003,7.640597e+002
1.932536e+003,7.779290e+002
1.934465e+003,7.978995e+002
1.936393e+003,8.155101e+002
1.938322e+003,8.246580e+002
1.940250e+003,8.111310e+002
1.942178e+003,7.791812e+002
1.944107e+003,7.608170e+002
1.946035e+003,7.582586e+002
1.947964e+003,7.609816e+002
1.949892e+003,7.702846e+002
1.951821e+003,7.818405e+002
1.953749e+003,7.987914e+002
1.955678e+003,8.131135e+002
1.957606e+003,8.191207e+002
1.959535e+003,8.219655e+002
1.961463e+003,8.320189e+002
1.963392e+003,8.428752e+002
1.965320e+003,8.273079e+002
1.967249e+003,7.840480e+002
1.969177e+003,7.697623e+002
1.971105e+003,8.038932e+002
1.973034e+003,8.224452e+002
1.974962e+003,7.949486e+002
1.976891e+003,7.693066e+002
1.978819e+003,7.719174e+002
1.980748e+003,7.819253e+002
1.982676e+003,7.778450e+002
1.984605e+003,7.666077e+002
1.986533e+003,7.664880e+002
1.988462e+003,7.782198e+002
1.990390e+003,7.853119e+002
1.992319e+003,7.849141e+002
1.994247e+003,7.850610e+002
1.996176e+003,7.858826e+002
1.998104e+003,7.877603e+002
2.000032e+003,7.898225e+002
2.001961e+003,7.942742e+002
2.003889e+003,8.020214e+002
2.005818e+003,8.129776e+002
2.007746e+003,8.326350e+002
2.009675e+003,8.565691e+002
2.011603e+003,8.521243e+002
2.013532e+003,8.150718e+002
2.015460e+003,8.075124e+002
2.017389e+003,8.495919e+002
2.019317e+003,8.755939e+002
2.021246e+003,8.604406e+002
2.023174e+003,8.402275e+002
2.025103e+003,8.290190e+002
2.027031e+003,8.231602e+002
2.028959e+003,8.175673e+002
2.030888e+003,8.157357e+002
2.032816e+003,8.311948e+002
2.034745e+003,8.616514e+002
2.036673e+003,8.655326e+002
2.038602e+003,8.292047e+002
2.040530e+003,8.071982e+002
2.042459e+003,8.097424e+002
2.044387e+003,8.129285e+002
2.046316e+003,8.091066e+002
2.048244e+003,8.100815e+002
2.050173e+003,8.277261e+002
2.052101e+003,8.465032e+002
2.054030e+003,8.497128e+002
2.055958e+003,8.436691e+002
2.057886e+003,8.408625e+002
2.059815e+003,8.417364e+002
2.061743e+003,8.550232e+002
2.063672e+003,8.845074e+002
2.065600e+003,8.936968e+002
2.067529e+003,8.671578e+002
2.069457e+003,8.485243e+002
2.071386e+003,8.610539e+002
2.073314e+003,8.701758e+002
2.075243e+003,8.504360e+002
2.077171e+003,8.285408e+002
2.079100e+003,8.327699e+002
2.081028e+003,8.501637e+002
2.082957e+003,8.524547e+002
2.084885e+003,8.416437e+002
2.086813e+003,8.462087e+002
2.088742e+003,8.738991e+002
2.090670e+003,8.929223e+002
2.092599e+003,9.038574e+002
2.094527e+003,9.039811e+002
2.096456e+003,8.844094e+002
2.098384e+003,8.668670e+002
2.100313e+003,8.581835e+002
2.102241e+003,8.555536e+002
2.104170e+003,8.612748e+002
2.106098e+003,8.691124e+002
2.108027e+003,8.718329e+002
2.109955e+003,8.698414e+002
2.111884e+003,8.603116e+002
2.113812e+003,8.433589e+002
2.115740e+003,8.467811e+002
2.117669e+003,8.846411e+002
2.119597e+003,9.026761e+002
2.121526e+003,8.775151e+002
2.123454e+003,8.587034e+002
2.125383e+003,8.604000e+002
2.127311e+003,8.654721e+002
2.129240e+003,8.675864e+002
2.131168e+003,8.671366e+002
2.133097e+003,8.615253e+002
2.135025e+003,8.549998e+002
2.136954e+003,8.571554e+002
2.138882e+003,8.658519e+002
2.140811e+003,8.682394e+002
2.142739e+003,8.643914e+002
2.144667e+003,8.713124e+002
2.146596e+003,8.946574e+002
2.148524e+003,9.091009e+002
2.150453e+003,9.062385e+002
2.152381e+003,9.004395e+002
2.154310e+003,8.922777e+002
2.156238e+003,8.867761e+002
2.158167e+003,8.889825e+002
2.160095e+003,8.926374e+002
2.162024e+003,8.942737e+002
2.163952e+003,8.925922e+002
2.165881e+003,8.817440e+002
2.167809e+003,8.646630e+002
2.169738e+003,8.594366e+002
2.171666e+003,8.660457e+002
2.173594e+003,8.713617e+002
2.175523e+003,8.740718e+002
2.177451e+003,8.773719e+002
2.179380e+003,8.802930e+002
2.181308e+003,8.886063e+002
2.183237e+003,9.186107e+002
2.185165e+003,9.338389e+002
2.187094e+003,9.017269e+002
2.189022e+003,8.691702e+002
2.190951e+003,8.745830e+002
2.192879e+003,8.950101e+002
2.194808e+003,9.014850e+002
2.196736e+003,8.986945e+002
2.198665e+003,9.004553e+002
2.200593e+003,9.062762e+002
2.202521e+003,9.074595e+002
2.204450e+003,9.030399e+002
2.206378e+003,9.074343e+002
2.208307e+003,9.264628e+002
2.210235e+003,9.327109e+002
2.212164e+003,9.154034e+002
2.214092e+003,8.984924e+002
2.216021e+003,8.867818e+002
2.217949e+003,8.817829e+002
2.219878e+003,8.892889e+002
2.221806e+003,8.979706e+002
2.223735e+003,8.976567e+002
2.225663e+003,8.938854e+002
2.227592e+003,8.951650e+002
2.229520e+003,8.984651e+002
2.231448e+003,8.953535e+002
2.233377e+003,8.865619e+002
2.235305e+003,8.759438e+002
2.237234e+003,8.636375e+002
2.239162e+003,8.674393e+002
2.241091e+003,8.939369e+002
2.243019e+003,9.085977e+002
2.244948e+003,8.996656e+002
2.246876e+003,8.909083e+002
2.248805e+003,8.860789e+002
2.250733e+003,8.848547e+002
2.252662e+003,8.899428e+002
2.254590e+003,8.946285e+002
2.256519e+003,8.953303e+002
2.258447e+003,8.934671e+002
2.260375e+003,8.876119e+002
2.262304e+003,8.823611e+002
2.264232e+003,8.873408e+002
2.266161e+003,8.988970e+002
2.268089e+003,9.062919e+002
2.270018e+003,9.093049e+002
2.271946e+003,9.081068e+002
2.273875e+003,9.018603e+002
2.275803e+003,8.980686e+002
2.277732e+003,8.985889e+002
2.279660e+003,8.992418e+002
2.281589e+003,9.005680e+002
2.283517e+003,9.014558e+002
2.285446e+003,9.012510e+002
2.287374e+003,9.014278e+002
2.289302e+003,9.019941e+002
2.291231e+003,9.032446e+002
2.293159e+003,9.059601e+002
2.295088e+003,9.082469e+002
2.297016e+003,9.074976e+002
2.298945e+003,9.060829e+002
2.300873e+003,9.075309e+002
2.302802e+003,9.108731e+002
2.304730e+003,9.155963e+002
2.306659e+003,9.205252e+002
2.308587e+003,9.141941e+002
2.310516e+003,8.938156e+002
2.312444e+003,8.870384e+002
2.314373e+003,8.970848e+002
2.316301e+003,9.013509e+002
2.318229e+003,8.960168e+002
2.320158e+003,8.943782e+002
2.322086e+003,9.008237e+002
2.324015e+003,9.072311e+002
2.325943e+003,9.113124e+002
2.327872e+003,9.146912e+002
2.329800e+003,9.187773e+002
2.331729e+003,9.209919e+002
2.333657e+003,9.164951e+002
2.335586e+003,9.124286e+002
2.337514e+003,9.151714e+002
2.339443e+003,9.212420e+002
2.341371e+003,9.285032e+002
2.343300e+003,9.346749e+002
2.345228e+003,9.365075e+002
2.347156e+003,9.337730e+002
2.349085e+003,9.223394e+002
2.351013e+003,9.038557e+002
2.352942e+003,8.969302e+002
2.354870e+003,9.020287e+002
2.356799e+003,9.195055e+002
2.358727e+003,9.641953e+002
2.360656e+003,9.766900e+002
2.362584e+003,9.401182e+002
2.364513e+003,9.160194e+002
2.366441e+003,9.171312e+002
2.368370e+003,9.212518e+002
2.370298e+003,9.247619e+002
2.372227e+003,9.247946e+002
2.374155e+003,9.140942e+002
2.376083e+003,9.078118e+002
2.378012e+003,9.180442e+002
2.379940e+003,9.305506e+002
2.381869e+003,9.359174e+002
2.383797e+003,9.377057e+002
2.385726e+003,9.406088e+002
2.387654e+003,9.415143e+002
2.389583e+003,9.309762e+002
2.391511e+003,9.177504e+002
2.393440e+003,9.212277e+002
2.395368e+003,9.367734e+002
2.397297e+003,9.469178e+002
2.399225e+003,9.522388e+002
2.401154e+003,9.653323e+002
2.403082e+003,9.895763e+002
2.405010e+003,9.897089e+002
2.406939e+003,9.589559e+002
2.408867e+003,9.382489e+002
2.410796e+003,9.304652e+002
2.412724e+003,9.307613e+002
2.414653e+003,9.404609e+002
2.416581e+003,9.512607e+002
2.418510e+003,9.619780e+002
2.420438e+003,9.711870e+002
2.422367e+003,9.828906e+002
2.424295e+003,9.852511e+002
2.426224e+003,9.645124e+002
2.428152e+003,9.467500e+002
2.430081e+003,9.454942e+002
2.432009e+003,9.498600e+002
2.433938e+003,9.603270e+002
2.435866e+003,9.668957e+002
2.437794e+003,9.536132e+002
2.439723e+003,9.398840e+002
2.441651e+003,9.521287e+002
2.443580e+003,9.734153e+002
2.445508e+003,9.781503e+002
2.447437e+003,9.712971e+002
2.449365e+003,9.596791e+002
2.451294e+003,9.473604e+002
2.453222e+003,9.547007e+002
2.455151e+003,9.759393e+002
2.457079e+003,9.826099e+002
2.459008e+003,9.756135e+002
2.460936e+003,9.700097e+002
2.462865e+003,9.663119e+002
2.464793e+003,9.666919e+002
2.466721e+003,9.735438e+002
2.468650e+003,9.753171e+002
2.470578e+003,9.689697e+002
2.472507e+003,9.678885e+002
2.474435e+003,9.733276e+002
2.476364e+003,9.839787e+002
2.478292e+003,1.005562e+003
2.480221e+003,1.014581e+003
2.482149e+003,9.928911e+002
2.484078e+003,9.787274e+002
2.486006e+003,9.918992e+002
2.487935e+003,9.973923e+002
2.489863e+003,9.708473e+002
2.491792e+003,9.546742e+002
2.493720e+003,9.721889e+002
2.495648e+003,9.912113e+002
2.497577e+003,9.903420e+002
2.499505e+003,9.896393e+002
2.501434e+003,1.011909e+003
2.503362e+003,1.029238e+003
2.505291e+003,1.009124e+003
2.507219e+003,9.825209e+002
2.509148e+003,9.830479e+002
2.511076e+003,9.937238e+002
2.513005e+003,9.942286e+002
2.514933e+003,9.905023e+002
2.516862e+003,9.898470e+002
2.518790e+003,9.917568e+002
2.520719e+003,9.984053e+002
2.522647e+003,1.005899e+003
2.524575e+003,9.998365e+002
2.526504e+003,9.859481e+002
2.528432e+003,9.920758e+002
2.530361e+003,1.012682e+003
2.532289e+003,1.012102e+003
2.534218e+003,9.948035e+002
2.536146e+003,9.961337e+002
2.538075e+003,1.016529e+003
2.540003e+003,1.020798e+003
2.541932e+003,1.006607e+003
2.543860e+003,9.944355e+002
2.545789e+003,9.838668e+002
2.547717e+003,9.808994e+002
2.549646e+003,9.868406e+002
2.551574e+003,9.883020e+002
2.553502e+003,9.815594e+002
2.555431e+003,9.897180e+002
2.557359e+003,1.028382e+003
2.559288e+003,1.044794e+003
2.561216e+003,1.016332e+003
2.563145e+003,9.992690e+002
2.565073e+003,9.991984e+002
2.567002e+003,1.004402e+003
2.568930e+003,1.017097e+003
2.570859e+003,1.022352e+003
2.572787e+003,1.012459e+003
2.574716e+003,1.003625e+003
2.576644e+003,1.000288e+003
2.578573e+003,9.981987e+002
2.580501e+003,9.970370e+002
2.582429e+003,9.951743e+002
2.584358e+003,9.927736e+002
2.586287e+003,9.883625e+002
2.588215e+003,9.814197e+002
2.590144e+003,9.729822e+002
2.592072e+003,9.568038e+002
2.594000e+003,9.497241e+002
2.595929e+003,9.666322e+002
2.597857e+003,9.858282e+002
2.599786e+003,1.003821e+003
2.601714e+003,1.009019e+003
2.603643e+003,9.809790e+002
2.605571e+003,9.573915e+002
2.607500e+003,9.722416e+002
2.609428e+003,9.899673e+002
2.611357e+003,9.801376e+002
2.613285e+003,9.674086e+002
2.615214e+003,9.758447e+002
2.617142e+003,9.861803e+002
2.619071e+003,9.786310e+002
2.620999e+003,9.684854e+002
2.622927e+003,9.687823e+002
2.624856e+003,9.731776e+002
2.626784e+003,9.757911e+002
2.628713e+003,9.785681e+002
2.630641e+003,9.869169e+002
2.632570e+003,9.938464e+002
2.634498e+003,9.860753e+002
2.636427e+003,9.762776e+002
2.638355e+003,9.829333e+002
2.640284e+003,9.941263e+002
2.642212e+003,9.932178e+002
2.644141e+003,9.874963e+002
2.646069e+003,9.868967e+002
2.647998e+003,9.894696e+002
2.649926e+003,9.874564e+002
2.651854e+003,9.897677e+002
2.653783e+003,1.026230e+003
2.655711e+003,1.066531e+003
2.657640e+003,1.055448e+003
2.659568e+003,1.018692e+003
2.661497e+003,9.976162e+002
2.663425e+003,9.903262e+002
2.665354e+003,1.000263e+003
2.667282e+003,1.016599e+003
2.669211e+003,1.011871e+003
2.671139e+003,9.986718e+002
2.673068e+003,1.004204e+003
2.674996e+003,1.018568e+003
2.676925e+003,1.015506e+003
2.678853e+003,1.006951e+003
2.680781e+003,1.031821e+003
2.682710e+003,1.069043e+003
2.684638e+003,1.057253e+003
2.686567e+003,1.023785e+003
2.688495e+003,1.036462e+003
2.690424e+003,1.069293e+003
2.692352e+003,1.053370e+003
2.694281e+003,1.010843e+003
2.696209e+003,9.927012e+002
2.698138e+003,9.964922e+002
2.700066e+003,1.030678e+003
2.701995e+003,1.073973e+003
2.703923e+003,1.075075e+003
2.705852e+003,1.050334e+003
2.707780e+003,1.036129e+003
2.709708e+003,1.029906e+003
2.711637e+003,1.028310e+003
2.713565e+003,1.028457e+003
2.715494e+003,1.022388e+003
2.717422e+003,1.014203e+003
2.719351e+003,1.012207e+003
2.721279e+003,1.014531e+003
2.723208e+003,1.018938e+003
2.725136e+003,1.023213e+003
2.727065e+003,1.019800e+003
2.728993e+003,1.013681e+003
2.730922e+003,1.015376e+003
2.732850e+003,1.020358e+003
2.734779e+003,1.019155e+003
2.736707e+003,1.016591e+003
2.738635e+003,1.023545e+003
2.740564e+003,1.034557e+003
2.742492e+003,1.043782e+003
2.744421e+003,1.047879e+003
2.746349e+003,1.035353e+003
2.748278e+003,1.020812e+003
2.750206e+003,1.024558e+003
2.752135e+003,1.040283e+003
2.754063e+003,1.075282e+003
2.755992e+003,1.101238e+003
2.757920e+003,1.063877e+003
2.759849e+003,1.012268e+003
2.761777e+003,9.994200e+002
2.763706e+003,1.005205e+003
2.765634e+003,1.015103e+003
2.767563e+003,1.022807e+003
2.769491e+003,1.011526e+003
2.771419e+003,1.005533e+003
2.773348e+003,1.038837e+003
2.775276e+003,1.072940e+003
2.777205e+003,1.070465e+003
2.779133e+003,1.057679e+003
2.781062e+003,1.055161e+003
2.782990e+003,1.053586e+003
2.784919e+003,1.042257e+003
2.786847e+003,1.033675e+003
2.788776e+003,1.031430e+003
2.790704e+003,1.040802e+003
2.792633e+003,1.086308e+003
2.794561e+003,1.115112e+003
2.796490e+003,1.079440e+003
2.798418e+003,1.046777e+003
2.800346e+003,1.044860e+003
2.802275e+003,1.055839e+003
2.804203e+003,1.085834e+003
2.806132e+003,1.102999e+003
2.808060e+003,1.077389e+003
2.809989e+003,1.063471e+003
2.811917e+003,1.086899e+003
2.813846e+003,1.100268e+003
2.815774e+003,1.083780e+003
2.817703e+003,1.069286e+003
2.819631e+003,1.069927e+003
2.821560e+003,1.068308e+003
2.823488e+003,1.055369e+003
2.825417e+003,1.056576e+003
2.827345e+003,1.077517e+003
2.829273e+003,1.105230e+003
2.831202e+003,1.138109e+003
2.833130e+003,1.175713e+003
2.835059e+003,1.225561e+003
2.836987e+003,1.256859e+003
2.838916e+003,1.264174e+003
2.840844e+003,1.285582e+003
2.842773e+003,1.326460e+003
2.844701e+003,1.347528e+003
2.846630e+003,1.341490e+003
2.848558e+003,1.349140e+003
2.850487e+003,1.372514e+003
2.852415e+003,1.367560e+003
2.854344e+003,1.336745e+003
2.856272e+003,1.304106e+003
2.858200e+003,1.272153e+003
2.860129e+003,1.257385e+003
2.862057e+003,1.254943e+003
2.863986e+003,1.235051e+003
2.865914e+003,1.204431e+003
2.867843e+003,1.183141e+003
2.869771e+003,1.170442e+003
2.871700e+003,1.168593e+003
2.873628e+003,1.170506e+003
2.875557e+003,1.154258e+003
2.877485e+003,1.139518e+003
2.879414e+003,1.172665e+003
2.881342e+003,1.208803e+003
2.883271e+003,1.186954e+003
2.885199e+003,1.155405e+003
2.887127e+003,1.150948e+003
2.889056e+003,1.173678e+003
2.890984e+003,1.230888e+003
2.892913e+003,1.305109e+003
2.894841e+003,1.401510e+003
2.896770e+003,1.487437e+003
2.898698e+003,1.554656e+003
2.900627e+003,1.590486e+003
2.902555e+003,1.593874e+003
2.904484e+003,1.556396e+003
2.906412e+003,1.445918e+003
2.908341e+003,1.366963e+003
2.910269e+003,1.364524e+003
2.912198e+003,1.368924e+003
2.914126e+003,1.364159e+003
2.916054e+003,1.397665e+003
2.917983e+003,1.481763e+003
2.919911e+003,1.558862e+003
2.921840e+003,1.621788e+003
2.923768e+003,1.676115e+003
2.925697e+003,1.724547e+003
2.927625e+003,1.733334e+003
2.929554e+003,1.705395e+003
2.931482e+003,1.668893e+003
2.933411e+003,1.632737e+003
2.935339e+003,1.661619e+003
2.937268e+003,1.735770e+003
2.939196e+003,1.773964e+003
2.941125e+003,1.785877e+003
2.943053e+003,1.798426e+003
2.944981e+003,1.799045e+003
2.946910e+003,1.763305e+003
2.948838e+003,1.706270e+003
2.950767e+003,1.631028e+003
2.952695e+003,1.564942e+003
2.954624e+003,1.539971e+003
2.956552e+003,1.520329e+003
2.958481e+003,1.465740e+003
2.960409e+003,1.429018e+003
2.962338e+003,1.447528e+003
2.964266e+003,1.476446e+003
2.966195e+003,1.499136e+003
2.968123e+003,1.534270e+003
2.970052e+003,1.623376e+003
2.971980e+003,1.655479e+003
2.973908e+003,1.605738e+003
2.975837e+003,1.538223e+003
2.977765e+003,1.453471e+003
2.979694e+003,1.409133e+003
2.981622e+003,1.428542e+003
2.983551e+003,1.385813e+003
2.985479e+003,1.280134e+003
2.987408e+003,1.229095e+003
2.989336e+003,1.224134e+003
2.991265e+003,1.204904e+003
2.993193e+003,1.180996e+003
2.995122e+003,1.200016e+003
2.997050e+003,1.232794e+003
2.998979e+003,1.200028e+003
3.000907e+003,1.158039e+003
3.002835e+003,1.194537e+003
3.004764e+003,1.237202e+003
3.006692e+003,1.195283e+003
3.008621e+003,1.155629e+003
3.010549e+003,1.179459e+003
3.012478e+003,1.212720e+003
3.014406e+003,1.222591e+003
3.016335e+003,1.245838e+003
3.018263e+003,1.312596e+003
3.020192e+003,1.361239e+003
3.022120e+003,1.382064e+003
3.024049e+003,1.388446e+003
3.025977e+003,1.379027e+003
3.027906e+003,1.366482e+003
3.029834e+003,1.347829e+003
3.031762e+003,1.348902e+003
3.033691e+003,1.372522e+003
3.035619e+003,1.443150e+003
3.037548e+003,1.557865e+003
3.039476e+003,1.695399e+003
3.041405e+003,1.871680e+003
3.043333e+003,2.147266e+003
3.045262e+003,2.469427e+003
3.047190e+003,2.861437e+003
3.049119e+003,3.138774e+003
3.051047e+003,3.112000e+003
3.052976e+003,2.878887e+003
3.054904e+003,2.386915e+003
3.056833e+003,1.944821e+003
3.058761e+003,1.696632e+003
3.060689e+003,1.531183e+003
3.062618e+003,1.441987e+003
3.064546e+003,1.377697e+003
3.066475e+003,1.328418e+003
3.068403e+003,1.338142e+003
3.070332e+003,1.432536e+003
3.072260e+003,1.476167e+003
3.074189e+003,1.468120e+003
3.076117e+003,1.468136e+003
3.078046e+003,1.465395e+003
3.079974e+003,1.408841e+003
3.081903e+003,1.325306e+003
3.083831e+003,1.273305e+003
3.085760e+003,1.237239e+003
3.087688e+003,1.187789e+003
3.089616e+003,1.155300e+003
3.091545e+003,1.175641e+003
3.093473e+003,1.206164e+003
3.095402e+003,1.234843e+003
3.097330e+003,1.243937e+003
3.099259e+003,1.217187e+003
3.101187e+003,1.199948e+003
3.103116e+003,1.210481e+003
3.105044e+003,1.215350e+003
3.106973e+003,1.211841e+003
3.108901e+003,1.232994e+003
3.110830e+003,1.277476e+003
3.112758e+003,1.283462e+003
3.114687e+003,1.257324e+003
3.116615e+003,1.222504e+003
3.118543e+003,1.189153e+003
3.120472e+003,1.184267e+003
3.122400e+003,1.185384e+003
3.124329e+003,1.164134e+003
3.126257e+003,1.140176e+003
3.128186e+003,1.128120e+003
3.130114e+003,1.119604e+003
3.132043e+003,1.111933e+003
3.133971e+003,1.106757e+003
3.135900e+003,1.104321e+003
3.137828e+003,1.105088e+003
3.139757e+003,1.108727e+003
3.141685e+003,1.114330e+003
3.143614e+003,1.121277e+003
3.145542e+003,1.131963e+003
3.147470e+003,1.142989e+003
3.149399e+003,1.125751e+003
3.151327e+003,1.097071e+003
3.153256e+003,1.089880e+003
3.155184e+003,1.093341e+003
3.157113e+003,1.100248e+003
3.159041e+003,1.101567e+003
3.160970e+003,1.085733e+003
3.162898e+003,1.070898e+003
3.164827e+003,1.064488e+003
3.166755e+003,1.062165e+003
3.168684e+003,1.064483e+003
3.170612e+003,1.066936e+003
3.172541e+003,1.070534e+003
3.174469e+003,1.063165e+003
3.176397e+003,1.045255e+003
3.178326e+003,1.036341e+003
3.180254e+003,1.040978e+003
3.182183e+003,1.089243e+003
3.184111e+003,1.140839e+003
3.186040e+003,1.117765e+003
3.187968e+003,1.082788e+003
3.189897e+003,1.095601e+003
3.191825e+003,1.103955e+003
3.193754e+003,1.069185e+003
3.195682e+003,1.046609e+003
3.197611e+003,1.051363e+003
3.199539e+003,1.054443e+003
3.201468e+003,1.050729e+003
3.203396e+003,1.052922e+003
3.205324e+003,1.061283e+003
3.207253e+003,1.055202e+003
3.209181e+003,1.040252e+003
3.211110e+003,1.030427e+003
3.213038e+003,1.026619e+003
3.214967e+003,1.032715e+003
3.216895e+003,1.042232e+003
3.218824e+003,1.054613e+003
3.220752e+003,1.060231e+003
3.222681e+003,1.036390e+003
3.224609e+003,1.044621e+003
3.226538e+003,1.110075e+003
3.228466e+003,1.125225e+003
3.230395e+003,1.068895e+003
3.232323e+003,1.066123e+003
3.234251e+003,1.109665e+003
3.236180e+003,1.094502e+003
3.238108e+003,1.049835e+003
3.240037e+003,1.035720e+003
3.241965e+003,1.032657e+003
3.243894e+003,1.009895e+003
3.245822e+003,1.002860e+003
3.247751e+003,1.049655e+003
3.249679e+003,1.076532e+003
3.251608e+003,1.036257e+003
3.253536e+003,1.016609e+003
3.255465e+003,1.025782e+003
3.257393e+003,1.031740e+003
3.259322e+003,1.031907e+003
3.261250e+003,1.027840e+003
3.263178e+003,1.021314e+003
3.265107e+003,1.017655e+003
3.267035e+003,1.015435e+003
3.268964e+003,1.011552e+003
3.270892e+003,1.010531e+003
3.272821e+003,1.018245e+003
3.274749e+003,1.024503e+003
3.276678e+003,1.026114e+003
3.278606e+003,1.026289e+003
3.280535e+003,1.024838e+003
3.282463e+003,1.024148e+003
3.284392e+003,1.025458e+003
3.286320e+003,1.044038e+003
3.288249e+003,1.068350e+003
3.290177e+003,1.060398e+003
3.292105e+003,1.049031e+003
3.294034e+003,1.079003e+003
3.295962e+003,1.098190e+003
3.297891e+003,1.057118e+003
3.299819e+003,1.031380e+003
3.301748e+003,1.042634e+003
3.303676e+003,1.043413e+003
3.305605e+003,1.020313e+003
3.307533e+003,1.035300e+003
3.309462e+003,1.076990e+003
3.311390e+003,1.069867e+003
3.313319e+003,1.039188e+003
3.315247e+003,1.023615e+003
3.317176e+003,1.015554e+003
3.319104e+003,1.001267e+003
3.321032e+003,1.005695e+003
3.322961e+003,1.064332e+003
3.324889e+003,1.090667e+003
3.326818e+003,1.066180e+003
3.328746e+003,1.073933e+003
3.330675e+003,1.114875e+003
3.332603e+003,1.104822e+003
3.334532e+003,1.064261e+003
3.336460e+003,1.047329e+003
3.338389e+003,1.049106e+003
3.340317e+003,1.077115e+003
3.342246e+003,1.100859e+003
3.344174e+003,1.099809e+003
3.346103e+003,1.102032e+003
3.348031e+003,1.116372e+003
3.349959e+003,1.124953e+003
3.351888e+003,1.127352e+003
3.353816e+003,1.098930e+003
3.355745e+003,1.061270e+003
3.357673e+003,1.087809e+003
3.359602e+003,1.134812e+003
3.361530e+003,1.147644e+003
3.363459e+003,1.148446e+003
3.365387e+003,1.139540e+003
3.367316e+003,1.142491e+003
3.369244e+003,1.163566e+003
3.371173e+003,1.195753e+003
3.373101e+003,1.238195e+003
3.375030e+003,1.275038e+003
3.376958e+003,1.308875e+003
3.378886e+003,1.337044e+003
3.380815e+003,1.385700e+003
3.382743e+003,1.480781e+003
3.384672e+003,1.611069e+003
3.386600e+003,1.750257e+003
3.388529e+003,1.966470e+003
3.390457e+003,2.267121e+003
3.392386e+003,2.716694e+003
3.394314e+003,3.317366e+003
3.396243e+003,3.778204e+003
3.398171e+003,4.050502e+003
3.400100e+003,4.022279e+003
3.402028e+003,3.807808e+003
3.403957e+003,3.471597e+003
3.405885e+003,3.087403e+003
3.407813e+003,2.638868e+003
3.409742e+003,2.274113e+003
3.411670e+003,2.026516e+003
3.413599e+003,1.790763e+003
3.415527e+003,1.573625e+003
3.417456e+003,1.431689e+003
3.419384e+003,1.345337e+003
3.421313e+003,1.289371e+003
3.423241e+003,1.254272e+003
3.425170e+003,1.240850e+003
3.427098e+003,1.232139e+003
3.429027e+003,1.223302e+003
3.430955e+003,1.217879e+003
3.432884e+003,1.216119e+003
3.434812e+003,1.209870e+003
3.436740e+003,1.198077e+003
3.438669e+003,1.171309e+003
3.440597e+003,1.145490e+003
3.442526e+003,1.138483e+003
3.444454e+003,1.139060e+003
3.446383e+003,1.143523e+003
3.448311e+003,1.149685e+003
3.450240e+003,1.159892e+003
3.452168e+003,1.150845e+003
3.454097e+003,1.125760e+003
3.456025e+003,1.110433e+003
3.457954e+003,1.098490e+003
3.459882e+003,1.076190e+003
3.461811e+003,1.060679e+003
3.463739e+003,1.063504e+003
3.465667e+003,1.070647e+003
3.467596e+003,1.083307e+003
3.469524e+003,1.083952e+003
3.471453e+003,1.073272e+003
3.473381e+003,1.057182e+003
3.475310e+003,1.042476e+003
3.477238e+003,1.041895e+003
3.479167e+003,1.051681e+003
3.481095e+003,1.081824e+003
3.483024e+003,1.093998e+003
3.484952e+003,1.068922e+003
3.486881e+003,1.058351e+003
3.488809e+003,1.064548e+003
3.490738e+003,1.056738e+003
3.492666e+003,1.046595e+003
3.494594e+003,1.075492e+003
3.496523e+003,1.103319e+003
3.498451e+003,1.098452e+003
3.500380e+003,1.079427e+003
3.502308e+003,1.047108e+003
3.504237e+003,1.028546e+003
3.506165e+003,1.027069e+003
3.508094e+003,1.034595e+003
3.510022e+003,1.047787e+003
3.511951e+003,1.065319e+003
3.513879e+003,1.074850e+003
3.515808e+003,1.053941e+003
3.517736e+003,1.046955e+003
3.519665e+003,1.071669e+003
3.521593e+003,1.078225e+003
3.523521e+003,1.062313e+003
3.525450e+003,1.044400e+003
3.527378e+003,1.031534e+003
3.529307e+003,1.043961e+003
3.531235e+003,1.055849e+003
3.533164e+003,1.045145e+003
3.535092e+003,1.033376e+003
3.537021e+003,1.018952e+003
3.538949e+003,1.046685e+003
3.540878e+003,1.107507e+003
3.542806e+003,1.100004e+003
3.544735e+003,1.060682e+003
3.546663e+003,1.036102e+003
3.548592e+003,1.027618e+003
3.550520e+003,1.041804e+003
3.552448e+003,1.052526e+003
3.554377e+003,1.054435e+003
3.556305e+003,1.046810e+003
3.558234e+003,1.033027e+003
3.560162e+003,1.025721e+003
3.562091e+003,1.024624e+003
3.564019e+003,1.031628e+003
3.565948e+003,1.040324e+003
3.567876e+003,1.050737e+003
3.569805e+003,1.053523e+003
3.571733e+003,1.048222e+003
3.573662e+003,1.053247e+003
3.575590e+003,1.060115e+003
3.577519e+003,1.030188e+003
3.579447e+003,1.010424e+003
3.581376e+003,1.053013e+003
3.583304e+003,1.087178e+003
3.585233e+003,1.095957e+003
3.587161e+003,1.075087e+003
3.589090e+003,1.031166e+003
3.591018e+003,1.029125e+003
3.592947e+003,1.041528e+003
3.594875e+003,1.016477e+003
3.596803e+003,1.003567e+003
3.598732e+003,1.049821e+003
3.600660e+003,1.068771e+003
3.602589e+003,1.051641e+003
3.604517e+003,1.044071e+003
3.606446e+003,1.032113e+003
3.608374e+003,9.266441e+002
3.610303e+003,8.479886e+002
3.612231e+003,9.310340e+002
3.614160e+003,1.001568e+003
3.616088e+003,1.019687e+003
3.618017e+003,1.015077e+003
3.619945e+003,9.982509e+002
3.621874e+003,1.035979e+003
3.623802e+003,1.073801e+003
3.625730e+003,1.027049e+003
3.627659e+003,9.893329e+002
3.629587e+003,1.005121e+003
3.631516e+003,1.020829e+003
3.633444e+003,1.030327e+003
3.635373e+003,1.061592e+003
3.637301e+003,1.090088e+003
3.639230e+003,1.056293e+003
3.641158e+003,1.014412e+003
3.643087e+003,9.933297e+002
3.645015e+003,9.913299e+002
3.646944e+003,1.009912e+003
3.648872e+003,1.022241e+003
3.650801e+003,1.027755e+003
3.652729e+003,1.024844e+003
3.654657e+003,1.020128e+003
3.656586e+003,1.022431e+003
3.658514e+003,1.013477e+003
3.660443e+003,9.859921e+002
3.662371e+003,9.935704e+002
3.664300e+003,1.027183e+003
3.666228e+003,1.030745e+003
3.668157e+003,1.020013e+003
3.670085e+003,1.000845e+003
3.672014e+003,9.944448e+002
3.673942e+003,1.008125e+003
3.675871e+003,1.020726e+003
3.677799e+003,1.028047e+003
3.679728e+003,1.001393e+003
3.681656e+003,9.758954e+002
3.683584e+003,1.005647e+003
3.685513e+003,1.026630e+003
3.687441e+003,1.014493e+003
3.689370e+003,1.005274e+003
3.691298e+003,1.002956e+003
3.693227e+003,1.008950e+003
3.695155e+003,1.018744e+003
3.697084e+003,1.024338e+003
3.699012e+003,1.036207e+003
3.700941e+003,1.065486e+003
3.702869e+003,1.060253e+003
3.704798e+003,1.020356e+003
3.706726e+003,1.042485e+003
3.708655e+003,1.078855e+003
3.710583e+003,1.056835e+003
3.712511e+003,1.031510e+003
3.714440e+003,1.026055e+003
3.716368e+003,1.023112e+003
3.718297e+003,1.020882e+003
3.720225e+003,1.014909e+003
3.722154e+003,1.017615e+003
3.724082e+003,1.066356e+003
3.726011e+003,1.086911e+003
3.727939e+003,1.035356e+003
3.729868e+003,1.009953e+003
3.731796e+003,1.017584e+003
3.733725e+003,1.026518e+003
3.735653e+003,1.030207e+003
3.737582e+003,1.013860e+003
3.739510e+003,1.002727e+003
3.741438e+003,1.006833e+003
3.743367e+003,1.019009e+003
3.745295e+003,1.034462e+003
3.747224e+003,1.011743e+003
3.749152e+003,9.941364e+002
3.751081e+003,1.043324e+003
3.753009e+003,1.083409e+003
3.754938e+003,1.089712e+003
3.756866e+003,1.092401e+003
3.758795e+003,1.087467e+003
3.760723e+003,1.035847e+003
3.762652e+003,9.857806e+002
3.764580e+003,9.802948e+002
3.766509e+003,9.909954e+002
3.768437e+003,1.012943e+003
3.770365e+003,1.030000e+003
3.772294e+003,1.039375e+003
3.774222e+003,1.026249e+003
3.776151e+003,1.018482e+003
3.778079e+003,1.046132e+003
3.780008e+003,1.052832e+003
3.781936e+003,1.030236e+003
3.783865e+003,1.020572e+003
3.785793e+003,1.019992e+003
3.787722e+003,1.021523e+003
3.789650e+003,1.021369e+003
3.791579e+003,1.012235e+003
3.793507e+003,1.025242e+003
3.795436e+003,1.058297e+003
3.797364e+003,1.047372e+003
3.799292e+003,1.024620e+003
3.801221e+003,1.031021e+003
3.803149e+003,1.049067e+003
3.805078e+003,1.083781e+003
3.807006e+003,1.066269e+003
3.808935e+003,1.014224e+003
3.810863e+003,1.011515e+003
3.812792e+003,1.025323e+003
3.814720e+003,1.026417e+003
3.816649e+003,1.042389e+003
3.818577e+003,1.086650e+003
3.820506e+003,1.070189e+003
3.822434e+003,1.024798e+003
3.824363e+003,1.015810e+003
3.826291e+003,1.014713e+003
3.828219e+003,1.005553e+003
3.830148e+003,1.006521e+003
3.832076e+003,1.020134e+003
3.834005e+003,1.061077e+003
3.835933e+003,1.094169e+003
3.837862e+003,1.061869e+003
3.839790e+003,1.051294e+003
3.841719e+003,1.086358e+003
3.843647e+003,1.097765e+003
3.845576e+003,1.083267e+003
3.847504e+003,1.014134e+003
3.849433e+003,9.719453e+002
3.851361e+003,1.046699e+003
3.853290e+003,1.069837e+003
3.855218e+003,1.031973e+003
3.857146e+003,1.013806e+003
3.859075e+003,1.008013e+003
3.861003e+003,1.004564e+003
3.862932e+003,1.002488e+003
3.864860e+003,1.001871e+003
3.866789e+003,9.994359e+002
3.868717e+003,9.995494e+002
3.870646e+003,1.019182e+003
3.872574e+003,1.038363e+003
3.874503e+003,1.045089e+003
3.876431e+003,1.046130e+003
3.878360e+003,1.042987e+003
3.880288e+003,1.040545e+003
3.882217e+003,1.038321e+003
3.884145e+003,1.033352e+003
3.886073e+003,1.033728e+003
3.888002e+003,1.041678e+003
3.889930e+003,1.071935e+003
3.891859e+003,1.100796e+003
3.893787e+003,1.047788e+003
3.895716e+003,1.010211e+003
3.897644e+003,1.050578e+003
3.899573e+003,1.055999e+003
3.901501e+003,1.022694e+003
3.903430e+003,1.036688e+003
3.905358e+003,1.054210e+003
3.907287e+003,1.025791e+003
3.909215e+003,1.003082e+003
3.911144e+003,9.951332e+002
3.913072e+003,9.924177e+002
3.915000e+003,1.000532e+003
3.916929e+003,1.051981e+003
3.918857e+003,1.070427e+003
3.920786e+003,1.002359e+003
3.922714e+003,1.003768e+003
3.924643e+003,1.047781e+003
3.926571e+003,1.028170e+003
3.928500e+003,9.985390e+002
3.930428e+003,9.910863e+002
3.932357e+003,9.840341e+002
3.934285e+003,9.756737e+002
3.936214e+003,9.729504e+002
3.938142e+003,9.736414e+002
3.940071e+003,9.677239e+002
3.941999e+003,9.894515e+002
3.943927e+003,1.050406e+003
3.945856e+003,1.067650e+003
3.947784e+003,1.062160e+003
3.949713e+003,1.076052e+003
3.951641e+003,1.057904e+003
3.953570e+003,9.911379e+002
3.955498e+003,9.552834e+002
3.957427e+003,9.468199e+002
3.959355e+003,9.522894e+002
3.961284e+003,9.660215e+002
3.963212e+003,9.877758e+002
3.965141e+003,1.016022e+003
3.967069e+003,1.040871e+003
3.968998e+003,1.007157e+003
3.970926e+003,9.835848e+002
3.972854e+003,1.031114e+003
3.974783e+003,1.055894e+003
3.976711e+003,1.048956e+003
3.978640e+003,1.000311e+003
3.980568e+003,9.580995e+002
3.982497e+003,9.711928e+002
3.984425e+003,9.993180e+002
3.986354e+003,1.036044e+003
3.988282e+003,9.808873e+002
3.990211e+003,9.213112e+002
3.992139e+003,9.881031e+002
3.994068e+003,1.041504e+003
3.995996e+003,1.049990e+003
3.997925e+003,1.041050e+003
3.999853e+003,1.030086e+003
4.001781e+003,1.047629e+003
4.003710e+003,1.052994e+003
4.005638e+003,1.033014e+003
4.007567e+003,1.018768e+003
4.009495e+003,1.011526e+003
4.011424e+003,1.011524e+003
4.013352e+003,1.016657e+003
4.015281e+003,1.035702e+003
4.017209e+003,1.020789e+003
4.019138e+003,9.857800e+002
4.021066e+003,9.536719e+002
4.022995e+003,9.545791e+002
4.024923e+003,1.008843e+003
4.026852e+003,1.029981e+003
4.028780e+003,1.021576e+003
4.030708e+003,1.008355e+003
4.032637e+003,1.003567e+003
4.034565e+003,1.018019e+003
4.036494e+003,1.027133e+003
4.038422e+003,1.025073e+003
4.040351e+003,9.778196e+002
4.042279e+003,9.478940e+002
4.044208e+003,9.904655e+002
4.046136e+003,1.029508e+003
4.048065e+003,1.049786e+003
4.049993e+003,9.928425e+002
4.051922e+003,9.495943e+002
4.053850e+003,9.849280e+002
4.055779e+003,9.900421e+002
4.057707e+003,9.668724e+002
4.059635e+003,9.944024e+002
4.061564e+003,1.007545e+003
4.063492e+003,9.523037e+002
4.065421e+003,9.241590e+002
4.067349e+003,9.298317e+002
4.069278e+003,9.616636e+002
4.071206e+003,9.880089e+002
4.073135e+003,9.773654e+002
4.075063e+003,9.874037e+002
4.076992e+003,1.006644e+003
4.078920e+003,9.385961e+002
4.080849e+003,8.958735e+002
4.082777e+003,9.693091e+002
4.084706e+003,1.018970e+003
4.086634e+003,1.029489e+003
4.088563e+003,9.680966e+002
4.090491e+003,9.200841e+002
4.092419e+003,9.348624e+002
4.094348e+003,9.675601e+002
4.096276e+003,1.004440e+003
4.098205e+003,1.020683e+003
4.100133e+003,1.007552e+003
4.102062e+003,9.402228e+002
4.103990e+003,9.422938e+002
4.105919e+003,9.921829e+002
4.107847e+003,1.005183e+003
4.109776e+003,9.948323e+002
4.111704e+003,9.445607e+002
4.113633e+003,9.563759e+002
4.115561e+003,1.000081e+003
4.117490e+003,1.005473e+003
4.119418e+003,9.834499e+002
4.121347e+003,9.317389e+002
4.123275e+003,9.657857e+002
4.125204e+003,1.024763e+003
4.127132e+003,9.588179e+002
4.129061e+003,9.209916e+002
4.130989e+003,9.542454e+002
4.132917e+003,9.792682e+002
4.134846e+003,9.981039e+002
4.136774e+003,1.034369e+003
4.138703e+003,1.021683e+003
4.140631e+003,9.415676e+002
4.142560e+003,9.484658e+002
4.144488e+003,9.948567e+002
4.146417e+003,1.049672e+003
4.148345e+003,1.045310e+003
4.150273e+003,9.759185e+002
4.152202e+003,9.949212e+002
4.154130e+003,1.027832e+003
4.156059e+003,1.004284e+003
4.157987e+003,9.708701e+002
4.159916e+003,9.410465e+002
4.161844e+003,9.707591e+002
4.163773e+003,1.003849e+003
4.165701e+003,9.999902e+002
4.167630e+003,1.003173e+003
4.169558e+003,1.003813e+003
4.171487e+003,9.487840e+002
4.173415e+003,9.220136e+002
4.175344e+003,9.613738e+002
4.177272e+003,9.892134e+002
4.179201e+003,9.962560e+002
4.181129e+003,9.556089e+002
4.183058e+003,9.467909e+002
4.184986e+003,9.871437e+002
4.186915e+003,1.013829e+003
4.188843e+003,1.025321e+003
4.190771e+003,1.019081e+003
4.192700e+003,1.012455e+003
4.194628e+003,1.008444e+003
4.196557e+003,1.006292e+003
4.198485e+003,1.001332e+003
4.200414e+003,9.924854e+002
4.202342e+003,9.584711e+002
4.204271e+003,9.151088e+002
4.206199e+003,9.594388e+002
4.208127e+003,9.816732e+002
4.210056e+003,9.107192e+002
4.211984e+003,9.294250e+002
4.213913e+003,9.954572e+002
4.215841e+003,1.021191e+003
4.217770e+003,1.018849e+003
4.219698e+003,9.872512e+002
4.221627e+003,9.817323e+002
4.223555e+003,9.849417e+002
4.225484e+003,9.759875e+002
4.227412e+003,9.716278e+002
4.229341e+003,9.750706e+002
4.231269e+003,9.996539e+002
4.233198e+003,1.017426e+003
4.235126e+003,1.004545e+003
4.237055e+003,9.928115e+002
4.238983e+003,9.810783e+002
4.240912e+003,9.529301e+002
4.242840e+003,9.494583e+002
4.244769e+003,9.896691e+002
4.246697e+003,1.001423e+003
4.248625e+003,9.951328e+002
4.250554e+003,9.884151e+002
