1.159199e+002,7.267223e+001
1.178484e+002,8.269778e+001
1.197769e+002,8.826293e+001
1.217053e+002,8.895099e+001
1.236338e+002,9.070321e+001
1.255623e+002,9.460398e+001
1.274907e+002,9.907664e+001
1.294192e+002,1.026373e+002
1.313477e+002,1.035375e+002
1.332761e+002,1.055357e+002
1.352046e+002,1.113065e+002
1.371331e+002,1.221194e+002
1.390615e+002,1.280429e+002
1.409900e+002,1.229777e+002
1.429185e+002,1.122410e+002
1.448469e+002,1.055244e+002
1.467754e+002,1.052411e+002
1.487039e+002,1.066032e+002
1.506323e+002,1.084872e+002
1.525608e+002,1.113770e+002
1.544893e+002,1.121413e+002
1.564177e+002,1.104880e+002
1.583462e+002,1.068181e+002
1.602747e+002,1.017992e+002
1.622031e+002,9.528755e+001
1.641316e+002,8.826040e+001
1.660601e+002,8.087604e+001
1.679885e+002,7.152507e+001
1.699170e+002,6.517654e+001
1.718455e+002,6.431496e+001
1.737739e+002,6.877245e+001
1.757024e+002,6.899456e+001
1.776309e+002,6.018999e+001
1.795593e+002,4.991793e+001
1.814878e+002,4.451033e+001
1.834163e+002,4.905148e+001
1.853447e+002,5.319438e+001
1.872732e+002,5.564761e+001
1.892017e+002,5.658043e+001
1.911301e+002,5.583983e+001
1.930586e+002,5.125148e+001
1.949871e+002,4.563743e+001
1.969155e+002,4.279613e+001
1.988440e+002,4.551802e+001
2.007725e+002,4.787928e+001
2.027009e+002,4.742505e+001
2.046294e+002,4.384980e+001
2.065579e+002,4.193839e+001
2.084864e+002,4.365724e+001
2.104148e+002,4.732168e+001
2.123433e+002,4.913197e+001
2.142718e+002,4.781912e+001
2.162002e+002,4.621667e+001
2.181287e+002,4.546846e+001
2.200572e+002,4.576570e+001
2.219856e+002,4.647883e+001
2.239141e+002,4.823518e+001
2.258426e+002,5.033097e+001
2.277710e+002,5.105411e+001
2.296995e+002,4.873831e+001
2.316280e+002,4.691195e+001
2.335564e+002,4.723724e+001
2.354849e+002,5.295060e+001
2.374134e+002,5.650504e+001
2.393418e+002,5.563639e+001
2.412703e+002,5.254920e+001
2.431988e+002,5.207164e+001
2.451272e+002,5.806757e+001
2.470557e+002,6.412836e+001
2.489842e+002,6.715644e+001
2.509126e+002,6.629974e+001
2.528411e+002,6.403722e+001
2.547696e+002,5.853453e+001
2.566980e+002,5.149956e+001
2.586265e+002,4.770406e+001
2.605550e+002,5.045210e+001
2.624834e+002,5.433756e+001
2.644119e+002,5.676730e+001
2.663404e+002,5.763020e+001
2.682688e+002,5.795622e+001
2.701973e+002,5.791254e+001
2.721258e+002,5.750626e+001
2.740542e+002,5.654607e+001
2.759827e+002,5.548055e+001
2.779112e+002,5.354407e+001
2.798396e+002,4.945749e+001
2.817681e+002,4.249734e+001
2.836966e+002,3.751049e+001
2.856250e+002,3.665594e+001
2.875535e+002,3.888398e+001
2.894820e+002,3.997355e+001
2.914104e+002,3.914007e+001
2.933389e+002,3.808888e+001
2.952674e+002,3.747842e+001
2.971958e+002,3.718291e+001
2.991243e+002,3.775813e+001
3.010528e+002,3.961059e+001
3.029813e+002,4.237270e+001
3.049097e+002,4.498778e+001
3.068382e+002,4.884766e+001
3.087667e+002,5.101082e+001
3.106951e+002,4.938380e+001
3.126236e+002,4.177837e+001
3.145521e+002,3.754946e+001
3.164805e+002,4.013866e+001
3.184090e+002,4.628422e+001
3.203375e+002,4.915885e+001
3.222659e+002,4.765432e+001
3.241944e+002,4.451448e+001
3.261229e+002,4.048277e+001
3.280513e+002,3.423646e+001
3.299798e+002,3.080519e+001
3.319083e+002,3.113632e+001
3.338367e+002,3.398198e+001
3.357652e+002,3.769115e+001
3.376937e+002,4.366690e+001
3.396221e+002,4.801019e+001
3.415506e+002,4.891561e+001
3.434791e+002,4.528914e+001
3.454075e+002,4.356862e+001
3.473360e+002,4.471707e+001
3.492645e+002,4.726174e+001
3.511929e+002,5.005383e+001
3.531214e+002,5.399856e+001
3.550499e+002,5.634761e+001
3.569783e+002,5.502075e+001
3.589068e+002,5.025573e+001
3.608353e+002,4.923253e+001
3.627637e+002,5.357674e+001
3.646922e+002,6.049581e+001
3.666207e+002,6.859375e+001
3.685491e+002,7.973719e+001
3.704776e+002,8.789340e+001
3.724061e+002,9.013128e+001
3.743345e+002,8.840558e+001
3.762630e+002,9.029444e+001
3.781915e+002,1.016384e+002
3.801199e+002,1.096646e+002
3.820484e+002,1.080251e+002
3.839769e+002,9.080412e+001
3.859053e+002,7.773500e+001
3.878338e+002,7.216335e+001
3.897623e+002,7.057649e+001
3.916907e+002,6.693967e+001
3.936192e+002,5.932368e+001
3.955477e+002,5.299000e+001
3.974761e+002,4.964040e+001
3.994046e+002,4.977055e+001
4.013331e+002,5.068518e+001
4.032615e+002,5.412122e+001
4.051900e+002,5.723191e+001
4.071185e+002,5.720417e+001
4.090469e+002,5.244136e+001
4.109754e+002,4.949509e+001
4.129039e+002,5.074685e+001
4.148323e+002,5.547004e+001
4.167608e+002,5.892886e+001
4.186893e+002,6.055275e+001
4.206177e+002,6.152454e+001
4.225462e+002,6.248226e+001
4.244747e+002,6.355581e+001
4.264032e+002,6.372461e+001
4.283316e+002,6.174961e+001
4.302601e+002,5.906562e+001
4.321886e+002,5.810024e+001
4.341170e+002,5.879916e+001
4.360455e+002,6.089124e+001
4.379740e+002,6.631638e+001
4.399024e+002,7.463539e+001
4.418309e+002,7.790689e+001
4.437594e+002,7.000335e+001
4.456878e+002,6.069975e+001
4.476163e+002,5.738973e+001
4.495448e+002,6.140647e+001
4.514732e+002,6.537804e+001
4.534017e+002,6.751292e+001
4.553302e+002,6.848058e+001
4.572586e+002,6.958240e+001
4.591871e+002,7.239292e+001
4.611156e+002,7.387872e+001
4.630440e+002,7.182772e+001
4.649725e+002,6.639005e+001
4.669010e+002,6.327322e+001
4.688294e+002,6.489489e+001
4.707579e+002,6.824122e+001
4.726864e+002,7.095783e+001
4.746148e+002,7.226824e+001
4.765433e+002,7.379272e+001
4.784718e+002,7.512325e+001
4.804002e+002,7.675858e+001
4.823287e+002,7.992345e+001
4.842572e+002,8.667184e+001
4.861856e+002,9.235480e+001
4.881141e+002,9.522852e+001
4.900426e+002,9.478956e+001
4.919710e+002,9.282388e+001
4.938995e+002,8.634662e+001
4.958280e+002,8.022041e+001
4.977564e+002,7.963594e+001
4.996849e+002,8.757294e+001
5.016134e+002,9.217041e+001
5.035418e+002,8.839896e+001
5.054703e+002,7.859477e+001
5.073988e+002,7.251359e+001
5.093272e+002,7.172461e+001
5.112557e+002,7.247885e+001
5.131842e+002,7.274777e+001
5.151127e+002,7.251532e+001
5.170411e+002,7.583479e+001
5.189696e+002,8.805646e+001
5.208981e+002,1.013228e+002
5.228265e+002,1.091269e+002
5.247550e+002,1.094648e+002
5.266835e+002,1.086118e+002
5.286119e+002,1.074676e+002
5.305404e+002,1.056127e+002
5.324689e+002,1.022203e+002
5.343973e+002,9.568451e+001
5.363258e+002,8.929659e+001
5.382543e+002,8.370867e+001
5.401827e+002,7.897619e+001
5.421112e+002,7.551403e+001
5.440397e+002,7.392278e+001
5.459681e+002,7.316592e+001
5.478966e+002,7.276810e+001
5.498251e+002,7.307500e+001
5.517535e+002,7.259163e+001
5.536820e+002,7.071729e+001
5.556105e+002,6.822603e+001
5.575389e+002,6.610513e+001
5.594674e+002,6.344705e+001
5.613959e+002,6.277031e+001
5.633243e+002,6.689304e+001
5.652528e+002,7.432176e+001
5.671813e+002,7.833345e+001
5.691097e+002,7.500650e+001
5.710382e+002,7.136457e+001
5.729667e+002,7.045293e+001
5.748951e+002,7.255719e+001
5.768236e+002,7.366007e+001
5.787521e+002,7.256618e+001
5.806805e+002,7.076662e+001
5.826090e+002,6.949389e+001
5.845375e+002,6.929254e+001
5.864659e+002,6.855202e+001
5.883944e+002,6.624402e+001
5.903229e+002,6.350300e+001
5.922513e+002,6.259493e+001
5.941798e+002,6.435035e+001
5.961083e+002,6.619358e+001
5.980367e+002,6.719245e+001
5.999652e+002,6.745451e+001
6.018937e+002,6.792381e+001
6.038221e+002,6.955544e+001
6.057506e+002,7.052863e+001
6.076791e+002,6.969504e+001
6.096075e+002,6.702036e+001
6.115360e+002,6.427341e+001
6.134645e+002,5.846653e+001
6.153929e+002,5.516564e+001
6.173214e+002,5.930870e+001
6.192499e+002,7.890945e+001
6.211783e+002,9.068033e+001
6.231068e+002,8.871156e+001
6.250353e+002,7.981439e+001
6.269637e+002,7.435678e+001
6.288922e+002,7.289787e+001
6.308207e+002,7.304996e+001
6.327491e+002,7.558126e+001
6.346776e+002,7.948567e+001
6.366061e+002,8.026321e+001
6.385345e+002,7.291433e+001
6.404630e+002,6.732279e+001
6.423915e+002,6.829293e+001
6.443199e+002,7.492914e+001
6.462484e+002,7.857639e+001
6.481769e+002,7.566217e+001
6.501053e+002,7.243842e+001
6.520338e+002,7.269735e+001
6.539623e+002,7.863145e+001
6.558907e+002,8.179365e+001
6.578192e+002,8.001420e+001
6.597477e+002,7.684418e+001
6.616761e+002,7.591607e+001
6.636046e+002,7.774971e+001
6.655331e+002,7.862964e+001
6.674615e+002,7.686614e+001
6.693900e+002,7.383343e+001
6.713185e+002,7.121323e+001
6.732469e+002,6.752804e+001
6.751754e+002,6.618149e+001
6.771039e+002,6.827896e+001
6.790323e+002,7.318564e+001
6.809608e+002,7.894912e+001
6.828893e+002,8.690118e+001
6.848177e+002,9.336932e+001
6.867462e+002,9.695110e+001
6.886747e+002,9.773179e+001
6.906031e+002,9.734397e+001
6.925316e+002,9.443056e+001
6.944601e+002,9.166446e+001
6.963885e+002,9.004229e+001
6.983170e+002,8.956906e+001
7.002455e+002,9.001307e+001
7.021740e+002,9.288435e+001
7.041024e+002,9.518793e+001
7.060309e+002,9.509740e+001
7.079594e+002,9.180222e+001
7.098878e+002,8.848820e+001
7.118163e+002,8.443673e+001
7.137448e+002,8.089342e+001
7.156732e+002,7.936546e+001
7.176017e+002,8.009928e+001
7.195302e+002,8.057815e+001
7.214586e+002,7.936583e+001
7.233871e+002,7.818639e+001
7.253156e+002,7.906629e+001
7.272440e+002,8.476849e+001
7.291725e+002,8.779932e+001
7.311010e+002,8.521441e+001
7.330294e+002,8.008961e+001
7.349579e+002,7.789104e+001
7.368864e+002,7.920811e+001
7.388149e+002,8.145500e+001
7.407433e+002,8.406855e+001
7.426718e+002,8.699287e+001
7.446003e+002,9.021107e+001
7.465287e+002,9.307037e+001
7.484572e+002,9.706059e+001
7.503857e+002,1.052489e+002
7.523141e+002,1.153730e+002
7.542426e+002,1.181761e+002
7.561711e+002,1.095332e+002
7.580995e+002,1.003372e+002
7.600280e+002,9.458794e+001
7.619565e+002,9.180487e+001
7.638849e+002,9.011763e+001
7.658134e+002,9.140999e+001
7.677419e+002,9.181814e+001
7.696703e+002,8.867678e+001
7.715988e+002,8.212206e+001
7.735273e+002,7.996632e+001
7.754557e+002,8.556635e+001
7.773842e+002,9.189880e+001
7.793127e+002,9.439856e+001
7.812411e+002,9.346983e+001
7.831696e+002,9.648643e+001
7.850981e+002,1.065169e+002
7.870266e+002,1.187230e+002
7.889550e+002,1.334713e+002
7.908835e+002,1.522531e+002
7.928120e+002,1.617042e+002
7.947404e+002,1.564301e+002
7.966689e+002,1.461841e+002
7.985974e+002,1.347197e+002
8.005258e+002,1.218408e+002
8.024543e+002,1.125168e+002
8.043828e+002,1.109420e+002
8.063112e+002,1.104939e+002
8.082397e+002,1.073256e+002
8.101682e+002,9.999755e+001
8.120966e+002,9.468274e+001
8.140251e+002,9.190813e+001
8.159536e+002,9.081270e+001
8.178820e+002,9.156976e+001
8.198105e+002,9.430173e+001
8.217390e+002,9.565131e+001
8.236674e+002,9.328917e+001
8.255959e+002,9.064727e+001
8.275244e+002,8.990428e+001
8.294528e+002,9.225816e+001
8.313813e+002,9.343105e+001
8.333098e+002,9.185442e+001
8.352382e+002,9.020949e+001
8.371667e+002,9.015073e+001
8.390952e+002,9.146082e+001
8.410236e+002,9.530833e+001
8.429521e+002,1.005743e+002
8.448806e+002,1.098339e+002
8.468090e+002,1.249261e+002
8.487375e+002,1.468286e+002
8.506660e+002,1.726513e+002
8.525944e+002,2.114571e+002
8.545229e+002,2.473371e+002
8.564514e+002,2.692999e+002
8.583798e+002,2.782189e+002
8.603083e+002,2.712875e+002
8.622368e+002,2.366187e+002
8.641652e+002,1.951326e+002
8.660937e+002,1.589018e+002
8.680222e+002,1.272978e+002
8.699506e+002,1.048830e+002
8.718791e+002,9.440005e+001
8.738076e+002,9.012849e+001
8.757360e+002,8.990147e+001
8.776645e+002,9.431204e+001
8.795930e+002,9.811565e+001
8.815214e+002,1.032500e+002
8.834499e+002,1.055397e+002
8.853784e+002,1.001271e+002
8.873068e+002,8.674722e+001
8.892353e+002,8.026102e+001
8.911638e+002,8.773067e+001
8.930922e+002,9.795757e+001
8.950207e+002,1.062610e+002
8.969492e+002,1.122951e+002
8.988776e+002,1.184827e+002
9.008061e+002,1.248712e+002
9.027346e+002,1.312904e+002
9.046630e+002,1.377965e+002
9.065915e+002,1.443508e+002
9.085200e+002,1.508095e+002
9.104484e+002,1.598947e+002
9.123769e+002,1.653694e+002
9.143054e+002,1.648250e+002
9.162338e+002,1.584884e+002
9.181623e+002,1.492940e+002
9.200908e+002,1.316372e+002
9.220192e+002,1.173146e+002
9.239477e+002,1.116483e+002
9.258762e+002,1.126455e+002
9.278046e+002,1.126043e+002
9.297331e+002,1.099522e+002
9.316616e+002,1.086965e+002
9.335900e+002,1.126146e+002
9.355185e+002,1.190784e+002
9.374470e+002,1.204404e+002
9.393754e+002,1.111072e+002
9.413039e+002,1.038079e+002
9.432324e+002,1.012249e+002
9.451608e+002,1.017512e+002
9.470893e+002,1.021086e+002
9.490178e+002,1.016723e+002
9.509462e+002,1.027555e+002
9.528747e+002,1.062133e+002
9.548032e+002,1.114418e+002
9.567316e+002,1.185059e+002
9.586601e+002,1.290004e+002
9.605886e+002,1.357570e+002
9.625170e+002,1.382092e+002
9.644455e+002,1.362559e+002
9.663740e+002,1.283383e+002
9.683024e+002,1.093378e+002
9.702309e+002,9.762377e+001
9.721594e+002,9.824907e+001
9.740878e+002,1.023110e+002
9.760163e+002,1.039065e+002
9.779448e+002,1.032660e+002
9.798733e+002,1.029798e+002
9.818018e+002,1.037361e+002
9.837302e+002,1.045401e+002
9.856587e+002,1.049650e+002
9.875872e+002,1.050078e+002
9.895156e+002,1.048085e+002
9.914441e+002,1.054966e+002
9.933726e+002,1.047534e+002
9.953010e+002,1.009830e+002
9.972295e+002,9.508217e+001
9.991580e+002,9.024085e+001
1.001086e+003,8.586584e+001
1.003015e+003,8.367160e+001
1.004943e+003,8.631242e+001
1.006872e+003,9.092958e+001
1.008800e+003,9.280323e+001
1.010729e+003,9.030597e+001
1.012657e+003,8.877313e+001
1.014586e+003,8.869742e+001
1.016514e+003,9.012549e+001
1.018443e+003,9.362908e+001
1.020371e+003,1.013010e+002
1.022300e+003,1.057407e+002
1.024228e+003,1.042819e+002
1.026156e+003,1.015082e+002
1.028085e+003,1.010011e+002
1.030013e+003,1.024751e+002
1.031942e+003,1.024193e+002
1.033870e+003,9.832294e+001
1.035799e+003,9.524042e+001
1.037727e+003,9.666430e+001
1.039656e+003,1.020042e+002
1.041584e+003,1.036646e+002
1.043513e+003,9.547375e+001
1.045441e+003,9.081869e+001
1.047370e+003,9.398643e+001
1.049298e+003,1.025096e+002
1.051227e+003,1.111416e+002
1.053155e+003,1.209913e+002
1.055083e+003,1.281239e+002
1.057012e+003,1.314678e+002
1.058940e+003,1.315311e+002
1.060869e+003,1.278838e+002
1.062797e+003,1.194913e+002
1.064726e+003,1.138508e+002
1.066654e+003,1.127791e+002
1.068583e+003,1.143405e+002
1.070511e+003,1.186082e+002
1.072440e+003,1.260055e+002
1.074368e+003,1.307635e+002
1.076297e+003,1.323860e+002
1.078225e+003,1.323584e+002
1.080154e+003,1.303580e+002
1.082082e+003,1.271839e+002
1.084010e+003,1.254188e+002
1.085939e+003,1.264677e+002
1.087867e+003,1.254124e+002
1.089796e+003,1.177821e+002
1.091724e+003,1.084970e+002
1.093653e+003,1.034178e+002
1.095581e+003,1.036598e+002
1.097510e+003,1.043764e+002
1.099438e+003,1.062045e+002
1.101367e+003,1.072543e+002
1.103295e+003,1.053528e+002
1.105224e+003,1.000745e+002
1.107152e+003,9.837540e+001
1.109081e+003,1.033906e+002
1.111009e+003,1.084440e+002
1.112938e+003,1.111117e+002
1.114866e+003,1.121235e+002
1.116794e+003,1.131568e+002
1.118723e+003,1.144139e+002
1.120651e+003,1.150988e+002
1.122580e+003,1.146805e+002
1.124508e+003,1.136461e+002
1.126437e+003,1.122471e+002
1.128365e+003,1.099507e+002
1.130294e+003,1.091034e+002
1.132222e+003,1.115280e+002
1.134151e+003,1.137696e+002
1.136079e+003,1.134665e+002
1.138008e+003,1.108413e+002
1.139936e+003,1.096698e+002
1.141865e+003,1.105938e+002
1.143793e+003,1.118689e+002
1.145721e+003,1.135606e+002
1.147650e+003,1.149315e+002
1.149578e+003,1.147060e+002
1.151507e+003,1.124081e+002
1.153435e+003,1.105146e+002
1.155364e+003,1.087169e+002
1.157292e+003,1.083859e+002
1.159221e+003,1.120721e+002
1.161149e+003,1.213278e+002
1.163078e+003,1.233912e+002
1.165006e+003,1.108577e+002
1.166935e+003,1.001645e+002
1.168863e+003,9.751652e+001
1.170792e+003,1.003594e+002
1.172720e+003,1.014882e+002
1.174648e+003,9.950580e+001
1.176577e+003,9.954683e+001
1.178505e+003,1.044154e+002
1.180434e+003,1.104542e+002
1.182362e+003,1.148471e+002
1.184291e+003,1.176204e+002
1.186219e+003,1.192250e+002
1.188148e+003,1.195072e+002
1.190076e+003,1.188420e+002
1.192005e+003,1.170281e+002
1.193933e+003,1.144497e+002
1.195862e+003,1.123240e+002
1.197790e+003,1.104826e+002
1.199719e+003,1.094416e+002
1.201647e+003,1.105280e+002
1.203575e+003,1.115054e+002
1.205504e+003,1.093616e+002
1.207432e+003,1.032688e+002
1.209361e+003,1.012094e+002
1.211289e+003,1.068904e+002
1.213218e+003,1.123486e+002
1.215146e+003,1.142456e+002
1.217075e+003,1.136796e+002
1.219003e+003,1.128650e+002
1.220932e+003,1.121266e+002
1.222860e+003,1.102484e+002
1.224789e+003,1.023925e+002
1.226717e+003,9.695757e+001
1.228646e+003,1.017026e+002
1.230574e+003,1.179963e+002
1.232502e+003,1.303098e+002
1.234431e+003,1.381435e+002
1.236359e+003,1.417851e+002
1.238288e+003,1.383258e+002
1.240216e+003,1.312839e+002
1.242145e+003,1.281338e+002
1.244073e+003,1.310087e+002
1.246002e+003,1.324213e+002
1.247930e+003,1.305842e+002
1.249859e+003,1.282948e+002
1.251787e+003,1.273982e+002
1.253716e+003,1.276416e+002
1.255644e+003,1.280497e+002
1.257573e+003,1.290000e+002
1.259501e+003,1.290723e+002
1.261429e+003,1.270913e+002
1.263358e+003,1.242359e+002
1.265286e+003,1.213000e+002
1.267215e+003,1.178903e+002
1.269143e+003,1.167998e+002
1.271072e+003,1.214785e+002
1.273000e+003,1.251987e+002
1.274929e+003,1.234192e+002
1.276857e+003,1.185987e+002
1.278786e+003,1.189991e+002
1.280714e+003,1.306743e+002
1.282643e+003,1.389664e+002
1.284571e+003,1.393946e+002
1.286500e+003,1.397207e+002
1.288428e+003,1.454560e+002
1.290356e+003,1.566347e+002
1.292285e+003,1.717986e+002
1.294213e+003,1.940048e+002
1.296142e+003,2.144662e+002
1.298070e+003,2.324296e+002
1.299999e+003,2.453504e+002
1.301927e+003,2.502435e+002
1.303856e+003,2.467758e+002
1.305784e+003,2.395529e+002
1.307713e+003,2.267630e+002
1.309641e+003,2.136397e+002
1.311570e+003,2.014907e+002
1.313498e+003,1.908131e+002
1.315427e+003,1.830271e+002
1.317355e+003,1.793785e+002
1.319283e+003,1.759775e+002
1.321212e+003,1.711277e+002
1.323140e+003,1.676312e+002
1.325069e+003,1.656854e+002
1.326997e+003,1.657868e+002
1.328926e+003,1.738333e+002
1.330854e+003,1.945848e+002
1.332783e+003,2.149205e+002
1.334711e+003,2.331558e+002
1.336640e+003,2.498237e+002
1.338568e+003,2.685814e+002
1.340497e+003,2.884686e+002
1.342425e+003,2.942782e+002
1.344354e+003,2.797991e+002
1.346282e+003,2.605953e+002
1.348210e+003,2.397820e+002
1.350139e+003,2.191160e+002
1.352068e+003,1.998911e+002
1.353996e+003,1.819271e+002
1.355924e+003,1.682805e+002
1.357853e+003,1.612842e+002
1.359781e+003,1.561014e+002
1.361710e+003,1.506493e+002
1.363638e+003,1.456870e+002
1.365567e+003,1.426319e+002
1.367495e+003,1.411832e+002
1.369424e+003,1.426208e+002
1.371352e+003,1.505636e+002
1.373281e+003,1.574556e+002
1.375209e+003,1.592724e+002
1.377138e+003,1.573339e+002
1.379066e+003,1.553929e+002
1.380995e+003,1.496704e+002
1.382923e+003,1.514013e+002
1.384851e+003,1.650996e+002
1.386780e+003,1.828272e+002
1.388708e+003,1.953023e+002
1.390637e+003,2.073126e+002
1.392565e+003,2.405260e+002
1.394494e+003,3.060594e+002
1.396422e+003,3.574135e+002
1.398351e+003,3.878084e+002
1.400279e+003,3.961978e+002
1.402208e+003,3.728467e+002
1.404136e+003,3.263716e+002
1.406065e+003,2.859049e+002
1.407993e+003,2.530802e+002
1.409922e+003,2.262385e+002
1.411850e+003,2.064557e+002
1.413778e+003,1.912931e+002
1.415707e+003,1.796259e+002
1.417635e+003,1.713775e+002
1.419564e+003,1.644575e+002
1.421492e+003,1.557592e+002
1.423421e+003,1.547290e+002
1.425349e+003,1.702808e+002
1.427278e+003,1.876462e+002
1.429206e+003,1.944880e+002
1.431135e+003,1.908474e+002
1.433063e+003,1.879909e+002
1.434992e+003,1.866443e+002
1.436920e+003,1.849495e+002
1.438849e+003,1.818008e+002
1.440777e+003,1.790361e+002
1.442705e+003,1.796261e+002
1.444634e+003,1.832350e+002
1.446562e+003,1.815029e+002
1.448491e+003,1.699702e+002
1.450419e+003,1.613257e+002
1.452348e+003,1.607444e+002
1.454276e+003,1.614567e+002
1.456205e+003,1.575379e+002
1.458133e+003,1.497313e+002
1.460062e+003,1.426108e+002
1.461990e+003,1.357571e+002
1.463919e+003,1.309967e+002
1.465847e+003,1.288502e+002
1.467776e+003,1.290478e+002
1.469704e+003,1.340950e+002
1.471632e+003,1.415383e+002
1.473561e+003,1.413121e+002
1.475489e+003,1.296395e+002
1.477418e+003,1.220083e+002
1.479346e+003,1.258666e+002
1.481275e+003,1.315836e+002
1.483203e+003,1.332608e+002
1.485132e+003,1.317025e+002
1.487060e+003,1.294946e+002
1.488989e+003,1.254131e+002
1.490917e+003,1.249983e+002
1.492846e+003,1.336570e+002
1.494774e+003,1.417854e+002
1.496703e+003,1.451351e+002
1.498631e+003,1.444404e+002
1.500559e+003,1.410172e+002
1.502488e+003,1.325644e+002
1.504416e+003,1.279943e+002
1.506345e+003,1.292563e+002
1.508273e+003,1.328245e+002
1.510202e+003,1.406687e+002
1.512130e+003,1.487661e+002
1.514059e+003,1.484020e+002
1.515987e+003,1.346198e+002
1.517916e+003,1.279677e+002
1.519844e+003,1.334370e+002
1.521773e+003,1.391519e+002
1.523701e+003,1.415034e+002
1.525630e+003,1.421267e+002
1.527558e+003,1.430330e+002
1.529486e+003,1.442336e+002
1.531415e+003,1.450215e+002
1.533343e+003,1.451216e+002
1.535272e+003,1.450338e+002
1.537200e+003,1.462268e+002
1.539129e+003,1.461954e+002
1.541057e+003,1.405848e+002
1.542986e+003,1.307441e+002
1.544914e+003,1.278349e+002
1.546843e+003,1.343864e+002
1.548771e+003,1.413728e+002
1.550700e+003,1.486989e+002
1.552628e+003,1.542968e+002
1.554557e+003,1.560309e+002
1.556485e+003,1.549862e+002
1.558413e+003,1.537578e+002
1.560342e+003,1.520159e+002
1.562270e+003,1.520789e+002
1.564199e+003,1.562785e+002
1.566127e+003,1.595298e+002
1.568056e+003,1.578351e+002
1.569984e+003,1.546676e+002
1.571913e+003,1.548331e+002
1.573841e+003,1.582313e+002
1.575770e+003,1.615994e+002
1.577698e+003,1.651663e+002
1.579627e+003,1.674183e+002
1.581555e+003,1.681160e+002
1.583484e+003,1.669529e+002
1.585412e+003,1.612306e+002
1.587340e+003,1.531840e+002
1.589269e+003,1.536620e+002
1.591197e+003,1.662337e+002
1.593126e+003,1.744482e+002
1.595054e+003,1.709417e+002
1.596983e+003,1.666385e+002
1.598911e+003,1.687224e+002
1.600840e+003,1.734270e+002
1.602768e+003,1.725921e+002
1.604697e+003,1.655466e+002
1.606625e+003,1.615386e+002
1.608554e+003,1.623176e+002
1.610482e+003,1.649592e+002
1.612411e+003,1.708212e+002
1.614339e+003,1.762489e+002
1.616267e+003,1.778893e+002
1.618196e+003,1.761364e+002
1.620124e+003,1.734565e+002
1.622053e+003,1.687813e+002
1.623981e+003,1.665901e+002
1.625910e+003,1.708595e+002
1.627838e+003,1.742327e+002
1.629767e+003,1.710043e+002
1.631695e+003,1.652533e+002
1.633624e+003,1.656536e+002
1.635552e+003,1.733785e+002
1.637481e+003,1.780207e+002
1.639409e+003,1.757504e+002
1.641338e+003,1.758154e+002
1.643266e+003,1.816780e+002
1.645194e+003,1.896945e+002
1.647123e+003,1.988512e+002
1.649051e+003,2.081237e+002
1.650980e+003,2.111263e+002
1.652908e+003,2.055899e+002
1.654837e+003,2.000819e+002
1.656765e+003,1.965315e+002
1.658694e+003,1.917741e+002
1.660622e+003,1.813027e+002
1.662551e+003,1.712944e+002
1.664479e+003,1.719149e+002
1.666408e+003,1.841602e+002
1.668336e+003,1.867203e+002
1.670265e+003,1.729033e+002
1.672193e+003,1.630120e+002
1.674121e+003,1.639833e+002
1.676050e+003,1.649853e+002
1.677978e+003,1.587098e+002
1.679907e+003,1.487593e+002
1.681835e+003,1.425774e+002
1.683764e+003,1.405025e+002
1.685692e+003,1.403179e+002
1.687621e+003,1.442353e+002
1.689549e+003,1.464338e+002
1.691478e+003,1.443201e+002
1.693406e+003,1.416706e+002
1.695335e+003,1.416352e+002
1.697263e+003,1.432926e+002
1.699192e+003,1.433315e+002
1.701120e+003,1.411989e+002
1.703048e+003,1.395025e+002
1.704977e+003,1.378896e+002
1.706905e+003,1.372554e+002
1.708834e+003,1.393188e+002
1.710762e+003,1.410170e+002
1.712691e+003,1.379630e+002
1.714619e+003,1.318429e+002
1.716548e+003,1.327143e+002
1.718476e+003,1.446321e+002
1.720405e+003,1.502396e+002
1.722333e+003,1.420660e+002
1.724262e+003,1.356002e+002
1.726190e+003,1.369342e+002
1.728119e+003,1.407234e+002
1.730047e+003,1.422614e+002
1.731975e+003,1.416776e+002
1.733904e+003,1.401512e+002
1.735832e+003,1.374640e+002
1.737761e+003,1.345076e+002
1.739689e+003,1.296579e+002
1.741618e+003,1.270765e+002
1.743546e+003,1.297230e+002
1.745475e+003,1.339430e+002
1.747403e+003,1.359188e+002
1.749332e+003,1.360510e+002
1.751260e+003,1.383028e+002
1.753189e+003,1.442961e+002
1.755117e+003,1.451401e+002
1.757046e+003,1.339859e+002
1.758974e+003,1.265436e+002
1.760902e+003,1.319326e+002
1.762831e+003,1.406220e+002
1.764759e+003,1.438805e+002
1.766688e+003,1.429956e+002
1.768616e+003,1.444645e+002
1.770545e+003,1.493273e+002
1.772473e+003,1.497245e+002
1.774402e+003,1.404966e+002
1.776330e+003,1.336785e+002
1.778259e+003,1.355838e+002
1.780187e+003,1.403221e+002
1.782116e+003,1.447445e+002
1.784044e+003,1.481030e+002
1.785973e+003,1.473963e+002
1.787901e+003,1.422508e+002
1.789829e+003,1.393828e+002
1.791758e+003,1.403519e+002
1.793686e+003,1.421206e+002
1.795615e+003,1.440009e+002
1.797543e+003,1.459476e+002
1.799472e+003,1.500534e+002
1.801400e+003,1.533440e+002
1.803329e+003,1.478323e+002
1.805257e+003,1.339100e+002
1.807186e+003,1.279983e+002
1.809114e+003,1.344966e+002
1.811043e+003,1.404579e+002
1.812971e+003,1.427476e+002
1.814900e+003,1.430007e+002
1.816828e+003,1.397886e+002
1.818756e+003,1.364622e+002
1.820685e+003,1.395071e+002
1.822613e+003,1.476141e+002
1.824542e+003,1.494828e+002
1.826470e+003,1.419261e+002
1.828399e+003,1.383827e+002
1.830327e+003,1.462466e+002
1.832256e+003,1.514556e+002
1.834184e+003,1.463902e+002
1.836113e+003,1.386520e+002
1.838041e+003,1.356046e+002
1.839970e+003,1.360023e+002
1.841898e+003,1.350437e+002
1.843827e+003,1.317318e+002
1.845755e+003,1.309414e+002
1.847684e+003,1.351906e+002
1.849612e+003,1.382065e+002
1.851541e+003,1.373053e+002
1.853469e+003,1.364129e+002
1.855397e+003,1.379368e+002
1.857326e+003,1.409514e+002
1.859254e+003,1.449961e+002
1.861183e+003,1.501100e+002
1.863111e+003,1.501323e+002
1.865040e+003,1.417932e+002
1.866968e+003,1.357118e+002
1.868897e+003,1.324349e+002
1.870825e+003,1.318314e+002
1.872754e+003,1.360945e+002
1.874682e+003,1.409725e+002
1.876611e+003,1.429773e+002
1.878539e+003,1.427702e+002
1.880468e+003,1.414519e+002
1.882396e+003,1.387617e+002
1.884324e+003,1.399521e+002
1.886253e+003,1.478273e+002
1.888181e+003,1.523379e+002
1.890110e+003,1.489637e+002
1.892038e+003,1.447278e+002
1.893967e+003,1.430819e+002
1.895895e+003,1.423754e+002
1.897824e+003,1.407175e+002
1.899752e+003,1.386313e+002
1.901681e+003,1.378175e+002
1.903609e+003,1.383761e+002
1.905538e+003,1.398798e+002
1.907466e+003,1.435845e+002
1.909395e+003,1.449843e+002
1.911323e+003,1.394500e+002
1.913251e+003,1.350782e+002
1.915180e+003,1.383742e+002
1.917108e+003,1.438817e+002
1.919037e+003,1.430304e+002
1.920965e+003,1.375079e+002
1.922894e+003,1.387888e+002
1.924822e+003,1.502809e+002
1.926751e+003,1.554127e+002
1.928679e+003,1.479022e+002
1.930608e+003,1.426121e+002
1.932536e+003,1.441835e+002
1.934465e+003,1.464767e+002
1.936393e+003,1.463504e+002
1.938322e+003,1.446509e+002
1.940250e+003,1.413695e+002
1.942178e+003,1.371376e+002
1.944107e+003,1.368914e+002
1.946035e+003,1.414452e+002
1.947964e+003,1.468936e+002
1.949892e+003,1.549805e+002
1.951821e+003,1.601526e+002
1.953749e+003,1.613240e+002
1.955678e+003,1.591552e+002
1.957606e+003,1.511096e+002
1.959535e+003,1.421385e+002
1.961463e+003,1.375012e+002
1.963392e+003,1.364437e+002
1.965320e+003,1.367716e+002
1.967249e+003,1.384225e+002
1.969177e+003,1.420855e+002
1.971105e+003,1.490481e+002
1.973034e+003,1.540641e+002
1.974962e+003,1.557916e+002
1.976891e+003,1.554076e+002
1.978819e+003,1.515088e+002
1.980748e+003,1.475019e+002
1.982676e+003,1.465453e+002
1.984605e+003,1.478428e+002
1.986533e+003,1.503206e+002
1.988462e+003,1.542033e+002
1.990390e+003,1.544560e+002
1.992319e+003,1.468182e+002
1.994247e+003,1.430881e+002
1.996176e+003,1.465208e+002
1.998104e+003,1.494883e+002
2.000032e+003,1.485008e+002
2.001961e+003,1.481740e+002
2.003889e+003,1.540374e+002
2.005818e+003,1.606972e+002
2.007746e+003,1.580802e+002
2.009675e+003,1.484050e+002
2.011603e+003,1.470953e+002
2.013532e+003,1.552369e+002
2.015460e+003,1.585809e+002
2.017389e+003,1.541324e+002
2.019317e+003,1.502525e+002
2.021246e+003,1.487848e+002
2.023174e+003,1.488752e+002
2.025103e+003,1.511117e+002
2.027031e+003,1.537489e+002
2.028959e+003,1.553243e+002
2.030888e+003,1.561815e+002
2.032816e+003,1.577095e+002
2.034745e+003,1.596655e+002
2.036673e+003,1.575764e+002
2.038602e+003,1.496318e+002
2.040530e+003,1.431261e+002
2.042459e+003,1.369853e+002
2.044387e+003,1.342551e+002
2.046316e+003,1.352701e+002
2.048244e+003,1.399661e+002
2.050173e+003,1.539399e+002
2.052101e+003,1.664216e+002
2.054030e+003,1.634184e+002
2.055958e+003,1.525688e+002
2.057886e+003,1.532504e+002
2.059815e+003,1.639558e+002
2.061743e+003,1.682267e+002
2.063672e+003,1.646358e+002
2.065600e+003,1.609555e+002
2.067529e+003,1.576911e+002
2.069457e+003,1.560918e+002
2.071386e+003,1.586907e+002
2.073314e+003,1.600064e+002
2.075243e+003,1.548081e+002
2.077171e+003,1.496797e+002
2.079100e+003,1.517787e+002
2.081028e+003,1.576313e+002
2.082957e+003,1.608089e+002
2.084885e+003,1.613948e+002
2.086813e+003,1.601778e+002
2.088742e+003,1.553727e+002
2.090670e+003,1.540820e+002
2.092599e+003,1.580494e+002
2.094527e+003,1.620037e+002
2.096456e+003,1.673217e+002
2.098384e+003,1.693888e+002
2.100313e+003,1.646089e+002
2.102241e+003,1.582959e+002
2.104170e+003,1.534316e+002
2.106098e+003,1.494101e+002
2.108027e+003,1.448285e+002
2.109955e+003,1.405001e+002
2.111884e+003,1.390102e+002
2.113812e+003,1.403717e+002
2.115740e+003,1.432080e+002
2.117669e+003,1.485738e+002
2.119597e+003,1.518699e+002
2.121526e+003,1.485893e+002
2.123454e+003,1.493605e+002
2.125383e+003,1.633297e+002
2.127311e+003,1.729700e+002
2.129240e+003,1.649024e+002
2.131168e+003,1.534530e+002
2.133097e+003,1.511211e+002
2.135025e+003,1.544162e+002
2.136954e+003,1.584768e+002
2.138882e+003,1.626524e+002
2.140811e+003,1.631907e+002
2.142739e+003,1.600903e+002
2.144667e+003,1.573304e+002
2.146596e+003,1.549501e+002
2.148524e+003,1.545086e+002
2.150453e+003,1.570205e+002
2.152381e+003,1.600324e+002
2.154310e+003,1.648558e+002
2.156238e+003,1.672849e+002
2.158167e+003,1.637106e+002
2.160095e+003,1.583121e+002
2.162024e+003,1.532861e+002
2.163952e+003,1.499564e+002
2.165881e+003,1.516605e+002
2.167809e+003,1.573405e+002
2.169738e+003,1.613972e+002
2.171666e+003,1.638200e+002
2.173594e+003,1.616247e+002
2.175523e+003,1.529738e+002
2.177451e+003,1.505038e+002
2.179380e+003,1.592876e+002
2.181308e+003,1.657318e+002
2.183237e+003,1.647613e+002
2.185165e+003,1.624447e+002
2.187094e+003,1.603820e+002
2.189022e+003,1.591459e+002
2.190951e+003,1.594717e+002
2.192879e+003,1.605677e+002
2.194808e+003,1.624392e+002
2.196736e+003,1.638986e+002
2.198665e+003,1.605268e+002
2.200593e+003,1.525341e+002
2.202521e+003,1.497421e+002
2.204450e+003,1.525673e+002
2.206378e+003,1.560498e+002
2.208307e+003,1.606916e+002
2.210235e+003,1.615820e+002
2.212164e+003,1.558779e+002
2.214092e+003,1.509265e+002
2.216021e+003,1.495532e+002
2.217949e+003,1.490219e+002
2.219878e+003,1.466447e+002
2.221806e+003,1.461421e+002
2.223735e+003,1.527297e+002
2.225663e+003,1.610686e+002
2.227592e+003,1.636568e+002
2.229520e+003,1.623799e+002
2.231448e+003,1.627529e+002
2.233377e+003,1.644586e+002
2.235305e+003,1.633758e+002
2.237234e+003,1.594042e+002
2.239162e+003,1.592057e+002
2.241091e+003,1.643488e+002
2.243019e+003,1.678024e+002
2.244948e+003,1.678512e+002
2.246876e+003,1.671148e+002
2.248805e+003,1.662819e+002
2.250733e+003,1.645346e+002
2.252662e+003,1.578893e+002
2.254590e+003,1.545788e+002
2.256519e+003,1.652228e+002
2.258447e+003,1.765507e+002
2.260375e+003,1.730573e+002
2.262304e+003,1.629036e+002
2.264232e+003,1.606718e+002
2.266161e+003,1.632675e+002
2.268089e+003,1.600185e+002
2.270018e+003,1.518656e+002
2.271946e+003,1.490171e+002
2.273875e+003,1.526221e+002
2.275803e+003,1.546863e+002
2.277732e+003,1.529221e+002
2.279660e+003,1.536854e+002
2.281589e+003,1.603587e+002
2.283517e+003,1.650653e+002
2.285446e+003,1.657154e+002
2.287374e+003,1.654647e+002
2.289302e+003,1.635889e+002
2.291231e+003,1.632049e+002
2.293159e+003,1.683304e+002
2.295088e+003,1.731409e+002
2.297016e+003,1.707460e+002
2.298945e+003,1.664482e+002
2.300873e+003,1.676794e+002
2.302802e+003,1.726189e+002
2.304730e+003,1.782482e+002
2.306659e+003,1.838235e+002
2.308587e+003,1.827117e+002
2.310516e+003,1.738360e+002
2.312444e+003,1.669875e+002
2.314373e+003,1.620702e+002
2.316301e+003,1.599773e+002
2.318229e+003,1.612278e+002
2.320158e+003,1.637762e+002
2.322086e+003,1.684272e+002
2.324015e+003,1.714019e+002
2.325943e+003,1.701567e+002
2.327872e+003,1.690214e+002
2.329800e+003,1.694296e+002
2.331729e+003,1.705925e+002
2.333657e+003,1.739438e+002
2.335586e+003,1.757316e+002
2.337514e+003,1.709225e+002
2.339443e+003,1.640910e+002
2.341371e+003,1.605385e+002
2.343300e+003,1.594119e+002
2.345228e+003,1.599745e+002
2.347156e+003,1.614151e+002
2.349085e+003,1.606707e+002
2.351013e+003,1.580352e+002
2.352942e+003,1.572792e+002
2.354870e+003,1.584579e+002
2.356799e+003,1.618416e+002
2.358727e+003,1.699186e+002
2.360656e+003,1.728238e+002
2.362584e+003,1.681726e+002
2.364513e+003,1.642774e+002
2.366441e+003,1.616734e+002
2.368370e+003,1.619002e+002
2.370298e+003,1.685219e+002
2.372227e+003,1.719742e+002
2.374155e+003,1.657190e+002
2.376083e+003,1.588549e+002
2.378012e+003,1.534622e+002
2.379940e+003,1.522036e+002
2.381869e+003,1.609016e+002
2.383797e+003,1.708009e+002
2.385726e+003,1.732029e+002
2.387654e+003,1.712667e+002
2.389583e+003,1.673450e+002
2.391511e+003,1.634988e+002
2.393440e+003,1.653549e+002
2.395368e+003,1.706413e+002
2.397297e+003,1.697045e+002
2.399225e+003,1.634170e+002
2.401154e+003,1.654865e+002
2.403082e+003,1.779302e+002
2.405010e+003,1.818750e+002
2.406939e+003,1.758674e+002
2.408867e+003,1.677318e+002
2.410796e+003,1.564992e+002
2.412724e+003,1.505703e+002
2.414653e+003,1.520921e+002
2.416581e+003,1.559573e+002
2.418510e+003,1.629637e+002
2.420438e+003,1.681216e+002
2.422367e+003,1.686017e+002
2.424295e+003,1.690008e+002
2.426224e+003,1.714577e+002
2.428152e+003,1.733225e+002
2.430081e+003,1.722922e+002
2.432009e+003,1.718722e+002
2.433938e+003,1.758116e+002
2.435866e+003,1.793322e+002
2.437794e+003,1.777078e+002
2.439723e+003,1.745387e+002
2.441651e+003,1.730661e+002
2.443580e+003,1.730259e+002
2.445508e+003,1.759665e+002
2.447437e+003,1.790371e+002
2.449365e+003,1.739186e+002
2.451294e+003,1.636880e+002
2.453222e+003,1.605546e+002
2.455151e+003,1.629539e+002
2.457079e+003,1.632582e+002
2.459008e+003,1.616112e+002
2.460936e+003,1.615786e+002
2.462865e+003,1.634626e+002
2.464793e+003,1.661196e+002
2.466721e+003,1.708894e+002
2.468650e+003,1.713292e+002
2.470578e+003,1.651508e+002
2.472507e+003,1.644760e+002
2.474435e+003,1.728060e+002
2.476364e+003,1.755277e+002
2.478292e+003,1.667069e+002
2.480221e+003,1.616094e+002
2.482149e+003,1.677119e+002
2.484078e+003,1.722401e+002
2.486006e+003,1.711562e+002
2.487935e+003,1.699439e+002
2.489863e+003,1.706187e+002
2.491792e+003,1.709237e+002
2.493720e+003,1.697797e+002
2.495648e+003,1.683537e+002
2.497577e+003,1.660492e+002
2.499505e+003,1.651932e+002
2.501434e+003,1.700385e+002
2.503362e+003,1.739139e+002
2.505291e+003,1.696516e+002
2.507219e+003,1.633979e+002
2.509148e+003,1.606492e+002
2.511076e+003,1.602543e+002
2.513005e+003,1.603401e+002
2.514933e+003,1.621708e+002
2.516862e+003,1.713748e+002
2.518790e+003,1.812070e+002
2.520719e+003,1.767310e+002
2.522647e+003,1.636796e+002
2.524575e+003,1.551983e+002
2.526504e+003,1.519123e+002
2.528432e+003,1.600671e+002
2.530361e+003,1.762014e+002
2.532289e+003,1.784408e+002
2.534218e+003,1.693286e+002
2.536146e+003,1.681503e+002
2.538075e+003,1.752748e+002
2.540003e+003,1.753365e+002
2.541932e+003,1.666642e+002
2.543860e+003,1.655184e+002
2.545789e+003,1.738492e+002
2.547717e+003,1.766668e+002
2.549646e+003,1.729690e+002
2.551574e+003,1.703594e+002
2.553502e+003,1.696874e+002
2.555431e+003,1.693573e+002
2.557359e+003,1.705280e+002
2.559288e+003,1.677968e+002
2.561216e+003,1.539854e+002
2.563145e+003,1.498607e+002
2.565073e+003,1.606964e+002
2.567002e+003,1.697010e+002
2.568930e+003,1.739594e+002
2.570859e+003,1.768606e+002
2.572787e+003,1.805300e+002
2.574716e+003,1.802824e+002
2.576644e+003,1.696714e+002
2.578573e+003,1.632549e+002
2.580501e+003,1.657269e+002
2.582429e+003,1.716214e+002
2.584358e+003,1.834530e+002
2.586287e+003,1.908356e+002
2.588215e+003,1.881911e+002
2.590144e+003,1.831815e+002
2.592072e+003,1.769894e+002
2.594000e+003,1.728352e+002
2.595929e+003,1.729429e+002
2.597857e+003,1.746328e+002
2.599786e+003,1.792006e+002
2.601714e+003,1.811481e+002
2.603643e+003,1.756909e+002
2.605571e+003,1.690982e+002
2.607500e+003,1.646425e+002
2.609428e+003,1.617669e+002
2.611357e+003,1.590102e+002
2.613285e+003,1.589949e+002
2.615214e+003,1.664268e+002
2.617142e+003,1.747279e+002
2.619071e+003,1.803194e+002
2.620999e+003,1.817080e+002
2.622927e+003,1.716206e+002
2.624856e+003,1.630261e+002
2.626784e+003,1.741285e+002
2.628713e+003,1.887619e+002
2.630641e+003,1.870543e+002
2.632570e+003,1.798869e+002
2.634498e+003,1.803149e+002
2.636427e+003,1.833336e+002
2.638355e+003,1.833574e+002
2.640284e+003,1.816934e+002
2.642212e+003,1.794551e+002
2.644141e+003,1.770448e+002
2.646069e+003,1.738067e+002
2.647998e+003,1.717508e+002
2.649926e+003,1.764879e+002
2.651854e+003,1.830001e+002
2.653783e+003,1.816321e+002
2.655711e+003,1.772709e+002
2.657640e+003,1.785897e+002
2.659568e+003,1.819426e+002
2.661497e+003,1.780550e+002
2.663425e+003,1.726788e+002
2.665354e+003,1.816768e+002
2.667282e+003,1.956233e+002
2.669211e+003,1.917030e+002
2.671139e+003,1.793024e+002
2.673068e+003,1.771210e+002
2.674996e+003,1.803540e+002
2.676925e+003,1.777558e+002
2.678853e+003,1.726842e+002
2.680781e+003,1.743668e+002
2.682710e+003,1.794090e+002
2.684638e+003,1.782260e+002
2.686567e+003,1.747505e+002
2.688495e+003,1.787535e+002
2.690424e+003,1.863884e+002
2.692352e+003,1.883889e+002
2.694281e+003,1.866530e+002
2.696209e+003,1.852604e+002
2.698138e+003,1.843499e+002
2.700066e+003,1.837833e+002
2.701995e+003,1.841971e+002
2.703923e+003,1.882301e+002
2.705852e+003,1.935408e+002
2.707780e+003,1.948131e+002
2.709708e+003,1.927245e+002
2.711637e+003,1.868153e+002
2.713565e+003,1.802259e+002
2.715494e+003,1.808737e+002
2.717422e+003,1.863462e+002
2.719351e+003,1.939047e+002
2.721279e+003,2.012225e+002
2.723208e+003,2.024864e+002
2.725136e+003,2.001021e+002
2.727065e+003,1.981237e+002
2.728993e+003,1.969109e+002
2.730922e+003,1.977519e+002
2.732850e+003,1.993629e+002
2.734779e+003,1.996978e+002
2.736707e+003,1.990453e+002
2.738635e+003,1.992430e+002
2.740564e+003,1.979825e+002
2.742492e+003,1.885744e+002
2.744421e+003,1.771130e+002
2.746349e+003,1.715824e+002
2.748278e+003,1.710986e+002
2.750206e+003,1.766846e+002
2.752135e+003,1.845118e+002
2.754063e+003,1.905784e+002
2.755992e+003,1.939690e+002
2.757920e+003,1.906726e+002
2.759849e+003,1.868524e+002
2.761777e+003,1.922201e+002
2.763706e+003,1.980180e+002
2.765634e+003,1.919954e+002
2.767563e+003,1.836522e+002
2.769491e+003,1.826912e+002
2.771419e+003,1.851770e+002
2.773348e+003,1.900259e+002
2.775276e+003,1.932234e+002
2.777205e+003,1.870452e+002
2.779133e+003,1.826566e+002
2.781062e+003,1.945478e+002
2.782990e+003,2.060080e+002
2.784919e+003,2.025560e+002
2.786847e+003,1.958319e+002
2.788776e+003,1.895049e+002
2.790704e+003,1.874308e+002
2.792633e+003,1.974895e+002
2.794561e+003,2.048887e+002
2.796490e+003,1.968641e+002
2.798418e+003,1.908078e+002
2.800346e+003,1.963108e+002
2.802275e+003,2.017982e+002
2.804203e+003,2.000196e+002
2.806132e+003,1.995232e+002
2.808060e+003,2.065671e+002
2.809989e+003,2.104769e+002
2.811917e+003,2.068332e+002
2.813846e+003,2.022705e+002
2.815774e+003,1.972344e+002
2.817703e+003,1.952749e+002
2.819631e+003,1.981145e+002
2.821560e+003,2.035607e+002
2.823488e+003,2.155291e+002
2.825417e+003,2.193487e+002
2.827345e+003,2.108981e+002
2.829273e+003,2.029126e+002
2.831202e+003,1.961977e+002
2.833130e+003,1.957832e+002
2.835059e+003,2.063939e+002
2.836987e+003,2.120110e+002
2.838916e+003,2.111182e+002
2.840844e+003,2.128413e+002
2.842773e+003,2.182346e+002
2.844701e+003,2.218233e+002
2.846630e+003,2.222439e+002
2.848558e+003,2.289644e+002
2.850487e+003,2.426572e+002
2.852415e+003,2.470276e+002
2.854344e+003,2.430644e+002
2.856272e+003,2.425270e+002
2.858200e+003,2.449966e+002
2.860129e+003,2.434640e+002
2.862057e+003,2.385488e+002
2.863986e+003,2.328402e+002
2.865914e+003,2.272478e+002
2.867843e+003,2.240557e+002
2.869771e+003,2.239364e+002
2.871700e+003,2.309619e+002
2.873628e+003,2.402020e+002
2.875557e+003,2.410885e+002
2.877485e+003,2.386352e+002
2.879414e+003,2.397623e+002
2.881342e+003,2.430863e+002
2.883271e+003,2.488090e+002
2.885199e+003,2.540476e+002
2.887127e+003,2.536704e+002
2.889056e+003,2.542675e+002
2.890984e+003,2.636517e+002
2.892913e+003,2.722141e+002
2.894841e+003,2.732241e+002
2.896770e+003,2.725398e+002
2.898698e+003,2.683417e+002
2.900627e+003,2.713030e+002
2.902555e+003,2.893915e+002
2.904484e+003,3.063911e+002
2.906412e+003,3.147654e+002
2.908341e+003,3.277309e+002
2.910269e+003,3.489107e+002
2.912198e+003,3.753325e+002
2.914126e+003,4.030721e+002
2.916054e+003,4.427673e+002
2.917983e+003,4.883717e+002
2.919911e+003,5.972054e+002
2.921840e+003,7.893127e+002
2.923768e+003,1.020825e+003
2.925697e+003,1.311981e+003
2.927625e+003,1.414845e+003
2.929554e+003,1.334803e+003
2.931482e+003,1.158581e+003
2.933411e+003,9.101692e+002
2.935339e+003,7.227580e+002
2.937268e+003,5.918976e+002
2.939196e+003,5.090423e+002
2.941125e+003,4.660807e+002
2.943053e+003,4.502328e+002
2.944981e+003,4.541529e+002
2.946910e+003,4.623355e+002
2.948838e+003,4.882227e+002
2.950767e+003,5.660157e+002
2.952695e+003,6.508121e+002
2.954624e+003,7.053093e+002
2.956552e+003,7.490272e+002
2.958481e+003,7.945576e+002
2.960409e+003,8.365079e+002
2.962338e+003,8.953761e+002
2.964266e+003,9.085308e+002
2.966195e+003,8.463842e+002
2.968123e+003,7.537696e+002
2.970052e+003,6.145662e+002
2.971980e+003,5.061574e+002
2.973908e+003,4.387241e+002
2.975837e+003,3.971086e+002
2.977765e+003,3.796735e+002
2.979694e+003,3.917348e+002
2.981622e+003,4.427118e+002
2.983551e+003,4.795976e+002
2.985479e+003,5.022529e+002
2.987408e+003,4.879138e+002
2.989336e+003,4.426770e+002
2.991265e+003,3.953655e+002
2.993193e+003,3.511955e+002
2.995122e+003,3.265255e+002
2.997050e+003,3.155034e+002
2.998979e+003,3.013944e+002
3.000907e+003,2.977170e+002
3.002835e+003,3.258940e+002
3.004764e+003,3.672612e+002
3.006692e+003,4.161288e+002
3.008621e+003,4.527417e+002
3.010549e+003,4.718482e+002
3.012478e+003,4.627904e+002
3.014406e+003,3.981045e+002
3.016335e+003,3.414711e+002
3.018263e+003,3.192512e+002
3.020192e+003,2.978965e+002
3.022120e+003,2.699581e+002
3.024049e+003,2.564699e+002
3.025977e+003,2.666841e+002
3.027906e+003,2.689948e+002
3.029834e+003,2.611198e+002
3.031762e+003,2.492097e+002
3.033691e+003,2.352526e+002
3.035619e+003,2.413705e+002
3.037548e+003,2.612570e+002
3.039476e+003,2.638203e+002
3.041405e+003,2.572765e+002
3.043333e+003,2.643741e+002
3.045262e+003,2.741421e+002
3.047190e+003,2.683149e+002
3.049119e+003,2.610040e+002
3.051047e+003,2.688853e+002
3.052976e+003,2.775800e+002
3.054904e+003,2.787619e+002
3.056833e+003,2.768197e+002
3.058761e+003,2.704727e+002
3.060689e+003,2.679375e+002
3.062618e+003,2.746535e+002
3.064546e+003,2.771583e+002
3.066475e+003,2.724128e+002
3.068403e+003,2.754427e+002
3.070332e+003,2.923258e+002
3.072260e+003,2.908155e+002
3.074189e+003,2.709050e+002
3.076117e+003,2.663952e+002
3.078046e+003,2.728595e+002
3.079974e+003,2.714773e+002
3.081903e+003,2.655575e+002
3.083831e+003,2.625687e+002
3.085760e+003,2.607705e+002
3.087688e+003,2.589944e+002
3.089616e+003,2.558724e+002
3.091545e+003,2.469999e+002
3.093473e+003,2.413191e+002
3.095402e+003,2.481166e+002
3.097330e+003,2.518494e+002
3.099259e+003,2.464206e+002
3.101187e+003,2.418510e+002
3.103116e+003,2.450194e+002
3.105044e+003,2.371011e+002
3.106973e+003,2.154601e+002
3.108901e+003,2.125930e+002
3.110830e+003,2.288019e+002
3.112758e+003,2.296760e+002
3.114687e+003,2.191950e+002
3.116615e+003,2.204562e+002
3.118543e+003,2.260369e+002
3.120472e+003,2.188590e+002
3.122400e+003,2.088946e+002
3.124329e+003,2.092955e+002
3.126257e+003,2.103649e+002
3.128186e+003,2.018140e+002
3.130114e+003,1.978304e+002
3.132043e+003,2.123799e+002
3.133971e+003,2.190030e+002
3.135900e+003,2.048473e+002
3.137828e+003,2.000318e+002
3.139757e+003,2.089790e+002
3.141685e+003,2.085066e+002
3.143614e+003,1.955116e+002
3.145542e+003,1.901755e+002
3.147470e+003,1.914859e+002
3.149399e+003,1.930154e+002
3.151327e+003,1.956659e+002
3.153256e+003,2.039777e+002
3.155184e+003,2.113295e+002
3.157113e+003,2.051078e+002
3.159041e+003,1.998162e+002
3.160970e+003,2.112185e+002
3.162898e+003,2.161512e+002
3.164827e+003,1.947601e+002
3.166755e+003,1.843442e+002
3.168684e+003,1.944912e+002
3.170612e+003,1.987561e+002
3.172541e+003,1.925177e+002
3.174469e+003,1.864893e+002
3.176397e+003,1.811263e+002
3.178326e+003,1.873461e+002
3.180254e+003,1.983315e+002
3.182183e+003,1.899819e+002
3.184111e+003,1.766084e+002
3.186040e+003,1.845548e+002
3.187968e+003,1.949575e+002
3.189897e+003,1.916998e+002
3.191825e+003,1.861783e+002
3.193754e+003,1.836023e+002
3.195682e+003,1.815716e+002
3.197611e+003,1.792233e+002
3.199539e+003,1.786854e+002
3.201468e+003,1.804649e+002
3.203396e+003,1.825831e+002
3.205324e+003,1.849141e+002
3.207253e+003,1.903952e+002
3.209181e+003,1.967304e+002
3.211110e+003,1.960349e+002
3.213038e+003,1.928270e+002
3.214967e+003,1.942976e+002
3.216895e+003,1.965139e+002
3.218824e+003,1.976268e+002
3.220752e+003,1.962039e+002
3.222681e+003,1.884285e+002
3.224609e+003,1.843940e+002
3.226538e+003,1.874428e+002
3.228466e+003,1.842567e+002
3.230395e+003,1.717302e+002
3.232323e+003,1.760270e+002
3.234251e+003,1.946353e+002
3.236180e+003,1.964964e+002
3.238108e+003,1.902564e+002
3.240037e+003,1.961930e+002
3.241965e+003,2.029400e+002
3.243894e+003,1.947825e+002
3.245822e+003,1.857827e+002
3.247751e+003,1.833373e+002
3.249679e+003,1.828026e+002
3.251608e+003,1.844654e+002
3.253536e+003,1.829342e+002
3.255465e+003,1.773178e+002
3.257393e+003,1.744074e+002
3.259322e+003,1.746913e+002
3.261250e+003,1.779693e+002
3.263178e+003,1.821173e+002
3.265107e+003,1.769657e+002
3.267035e+003,1.726409e+002
3.268964e+003,1.892744e+002
3.270892e+003,2.001130e+002
3.272821e+003,1.789989e+002
3.274749e+003,1.636386e+002
3.276678e+003,1.679724e+002
3.278606e+003,1.741869e+002
3.280535e+003,1.808573e+002
3.282463e+003,1.820392e+002
3.284392e+003,1.782100e+002
3.286320e+003,1.754113e+002
3.288249e+003,1.724871e+002
3.290177e+003,1.648725e+002
3.292105e+003,1.563663e+002
3.294034e+003,1.486477e+002
3.295962e+003,1.456350e+002
3.297891e+003,1.528777e+002
3.299819e+003,1.598125e+002
3.301748e+003,1.641985e+002
3.303676e+003,1.675128e+002
3.305605e+003,1.701102e+002
3.307533e+003,1.702830e+002
3.309462e+003,1.679940e+002
3.311390e+003,1.597698e+002
3.313319e+003,1.519481e+002
3.315247e+003,1.583890e+002
3.317176e+003,1.673922e+002
3.319104e+003,1.698274e+002
3.321032e+003,1.692944e+002
3.322961e+003,1.639886e+002
3.324889e+003,1.639132e+002
3.326818e+003,1.718341e+002
3.328746e+003,1.715695e+002
3.330675e+003,1.632096e+002
3.332603e+003,1.699713e+002
3.334532e+003,1.839409e+002
3.336460e+003,1.782936e+002
3.338389e+003,1.690285e+002
3.340317e+003,1.769189e+002
3.342246e+003,1.820468e+002
3.344174e+003,1.714065e+002
3.346103e+003,1.604517e+002
3.348031e+003,1.512482e+002
3.349959e+003,1.486871e+002
3.351888e+003,1.532034e+002
3.353816e+003,1.595817e+002
3.355745e+003,1.654943e+002
3.357673e+003,1.625789e+002
3.359602e+003,1.570804e+002
3.361530e+003,1.575074e+002
3.363459e+003,1.588118e+002
3.365387e+003,1.579614e+002
3.367316e+003,1.577091e+002
3.369244e+003,1.596641e+002
3.371173e+003,1.579592e+002
3.373101e+003,1.525674e+002
3.375030e+003,1.551064e+002
3.376958e+003,1.615329e+002
3.378886e+003,1.525810e+002
3.380815e+003,1.428294e+002
3.382743e+003,1.525674e+002
3.384672e+003,1.629623e+002
3.386600e+003,1.625729e+002
3.388529e+003,1.596552e+002
3.390457e+003,1.540138e+002
3.392386e+003,1.574087e+002
3.394314e+003,1.707021e+002
3.396243e+003,1.711104e+002
3.398171e+003,1.647399e+002
3.400100e+003,1.691967e+002
3.402028e+003,1.733871e+002
3.403957e+003,1.605630e+002
3.405885e+003,1.507710e+002
3.407813e+003,1.537407e+002
3.409742e+003,1.588491e+002
3.411670e+003,1.655507e+002
3.413599e+003,1.649915e+002
3.415527e+003,1.584140e+002
3.417456e+003,1.557119e+002
3.419384e+003,1.557572e+002
3.421313e+003,1.577200e+002
3.423241e+003,1.591327e+002
3.425170e+003,1.562304e+002
3.427098e+003,1.562494e+002
3.429027e+003,1.621096e+002
3.430955e+003,1.675931e+002
3.432884e+003,1.719608e+002
3.434812e+003,1.751170e+002
3.436740e+003,1.758261e+002
3.438669e+003,1.666631e+002
3.440597e+003,1.557177e+002
3.442526e+003,1.512631e+002
3.444454e+003,1.490500e+002
3.446383e+003,1.453890e+002
3.448311e+003,1.501584e+002
3.450240e+003,1.703368e+002
3.452168e+003,1.719810e+002
3.454097e+003,1.586147e+002
3.456025e+003,1.570341e+002
3.457954e+003,1.601528e+002
3.459882e+003,1.567754e+002
3.461811e+003,1.539906e+002
3.463739e+003,1.557939e+002
3.465667e+003,1.595212e+002
3.467596e+003,1.682142e+002
3.469524e+003,1.661033e+002
3.471453e+003,1.546653e+002
3.473381e+003,1.460643e+002
3.475310e+003,1.437536e+002
3.477238e+003,1.618423e+002
3.479167e+003,1.792077e+002
3.481095e+003,1.816759e+002
3.483024e+003,1.751728e+002
3.484952e+003,1.562608e+002
3.486881e+003,1.515826e+002
3.488809e+003,1.614878e+002
3.490738e+003,1.552884e+002
3.492666e+003,1.426991e+002
3.494594e+003,1.507054e+002
3.496523e+003,1.636554e+002
3.498451e+003,1.735732e+002
3.500380e+003,1.749471e+002
3.502308e+003,1.643179e+002
3.504237e+003,1.590224e+002
3.506165e+003,1.612002e+002
3.508094e+003,1.611419e+002
3.510022e+003,1.605170e+002
3.511951e+003,1.658072e+002
3.513879e+003,1.694211e+002
3.515808e+003,1.615667e+002
3.517736e+003,1.564183e+002
3.519665e+003,1.579830e+002
3.521593e+003,1.622067e+002
3.523521e+003,1.685278e+002
3.525450e+003,1.671766e+002
3.527378e+003,1.605079e+002
3.529307e+003,1.481206e+002
3.531235e+003,1.420482e+002
3.533164e+003,1.565914e+002
3.535092e+003,1.670143e+002
3.537021e+003,1.640435e+002
3.538949e+003,1.641731e+002
3.540878e+003,1.672151e+002
3.542806e+003,1.652218e+002
3.544735e+003,1.606106e+002
3.546663e+003,1.565418e+002
3.548592e+003,1.525361e+002
3.550520e+003,1.455818e+002
3.552448e+003,1.469150e+002
3.554377e+003,1.623301e+002
3.556305e+003,1.651908e+002
3.558234e+003,1.588663e+002
3.560162e+003,1.623493e+002
3.562091e+003,1.679745e+002
3.564019e+003,1.642694e+002
3.565948e+003,1.615677e+002
3.567876e+003,1.676013e+002
3.569805e+003,1.672737e+002
3.571733e+003,1.596625e+002
3.573662e+003,1.627232e+002
3.575590e+003,1.700771e+002
3.577519e+003,1.606936e+002
3.579447e+003,1.497004e+002
3.581376e+003,1.486867e+002
3.583304e+003,1.519080e+002
3.585233e+003,1.597841e+002
3.587161e+003,1.587643e+002
3.589090e+003,1.499080e+002
3.591018e+003,1.523208e+002
3.592947e+003,1.585817e+002
3.594875e+003,1.572515e+002
3.596803e+003,1.546504e+002
3.598732e+003,1.531173e+002
3.600660e+003,1.547105e+002
3.602589e+003,1.596289e+002
3.604517e+003,1.590969e+002
3.606446e+003,1.510672e+002
3.608374e+003,1.164380e+002
3.610303e+003,9.026086e+001
3.612231e+003,1.088458e+002
3.614160e+003,1.313745e+002
3.616088e+003,1.492025e+002
3.618017e+003,1.601692e+002
3.619945e+003,1.646902e+002
3.621874e+003,1.643479e+002
3.623802e+003,1.625718e+002
3.625730e+003,1.653816e+002
3.627659e+003,1.649432e+002
3.629587e+003,1.557157e+002
3.631516e+003,1.512649e+002
3.633444e+003,1.533787e+002
3.635373e+003,1.547890e+002
3.637301e+003,1.558600e+002
3.639230e+003,1.582537e+002
3.641158e+003,1.593436e+002
3.643087e+003,1.559931e+002
3.645015e+003,1.537792e+002
3.646944e+003,1.534609e+002
3.648872e+003,1.578600e+002
3.650801e+003,1.638974e+002
3.652729e+003,1.604496e+002
3.654657e+003,1.534750e+002
3.656586e+003,1.440691e+002
3.658514e+003,1.408580e+002
3.660443e+003,1.464787e+002
3.662371e+003,1.472166e+002
3.664300e+003,1.447020e+002
3.666228e+003,1.537169e+002
3.668157e+003,1.641583e+002
3.670085e+003,1.653118e+002
3.672014e+003,1.653563e+002
3.673942e+003,1.673905e+002
3.675871e+003,1.615448e+002
3.677799e+003,1.491747e+002
3.679728e+003,1.461785e+002
3.681656e+003,1.486188e+002
3.683584e+003,1.552037e+002
3.685513e+003,1.576920e+002
3.687441e+003,1.527964e+002
3.689370e+003,1.453287e+002
3.691298e+003,1.373943e+002
3.693227e+003,1.540597e+002
3.695155e+003,1.736604e+002
3.697084e+003,1.630392e+002
3.699012e+003,1.531812e+002
3.700941e+003,1.567442e+002
3.702869e+003,1.639944e+002
3.704798e+003,1.730620e+002
3.706726e+003,1.728677e+002
3.708655e+003,1.675177e+002
3.710583e+003,1.628673e+002
3.712511e+003,1.557573e+002
3.714440e+003,1.409959e+002
3.716368e+003,1.435402e+002
3.718297e+003,1.637431e+002
3.720225e+003,1.630220e+002
3.722154e+003,1.534924e+002
3.724082e+003,1.516906e+002
3.726011e+003,1.503587e+002
3.727939e+003,1.457178e+002
3.729868e+003,1.445101e+002
3.731796e+003,1.472769e+002
3.733725e+003,1.529669e+002
3.735653e+003,1.579458e+002
3.737582e+003,1.564327e+002
3.739510e+003,1.549738e+002
3.741438e+003,1.571189e+002
3.743367e+003,1.525624e+002
3.745295e+003,1.430074e+002
3.747224e+003,1.491077e+002
3.749152e+003,1.568026e+002
3.751081e+003,1.456122e+002
3.753009e+003,1.409911e+002
3.754938e+003,1.529165e+002
3.756866e+003,1.600678e+002
3.758795e+003,1.607179e+002
3.760723e+003,1.492901e+002
3.762652e+003,1.395614e+002
3.764580e+003,1.461226e+002
3.766509e+003,1.529694e+002
3.768437e+003,1.571641e+002
3.770365e+003,1.504333e+002
3.772294e+003,1.390217e+002
3.774222e+003,1.456204e+002
3.776151e+003,1.528182e+002
3.778079e+003,1.445596e+002
3.780008e+003,1.448934e+002
3.781936e+003,1.575496e+002
3.783865e+003,1.581217e+002
3.785793e+003,1.528731e+002
3.787722e+003,1.567537e+002
3.789650e+003,1.587414e+002
3.791579e+003,1.509025e+002
3.793507e+003,1.482764e+002
3.795436e+003,1.515595e+002
3.797364e+003,1.533077e+002
3.799292e+003,1.547641e+002
3.801221e+003,1.610889e+002
3.803149e+003,1.603167e+002
3.805078e+003,1.442061e+002
3.807006e+003,1.408620e+002
3.808935e+003,1.479307e+002
3.810863e+003,1.522877e+002
3.812792e+003,1.543095e+002
3.814720e+003,1.558490e+002
3.816649e+003,1.490998e+002
3.818577e+003,1.282596e+002
3.820506e+003,1.415889e+002
3.822434e+003,1.682919e+002
3.824363e+003,1.623638e+002
3.826291e+003,1.543490e+002
3.828219e+003,1.607480e+002
3.830148e+003,1.638116e+002
3.832076e+003,1.614251e+002
3.834005e+003,1.516310e+002
3.835933e+003,1.434369e+002
3.837862e+003,1.499826e+002
3.839790e+003,1.548307e+002
3.841719e+003,1.538160e+002
3.843647e+003,1.536576e+002
3.845576e+003,1.530473e+002
3.847504e+003,1.426928e+002
3.849433e+003,1.350771e+002
3.851361e+003,1.404225e+002
3.853290e+003,1.466560e+002
3.855218e+003,1.523957e+002
3.857146e+003,1.575554e+002
3.859075e+003,1.596643e+002
3.861003e+003,1.538640e+002
3.862932e+003,1.474262e+002
3.864860e+003,1.424356e+002
3.866789e+003,1.398651e+002
3.868717e+003,1.388639e+002
3.870646e+003,1.350641e+002
3.872574e+003,1.343581e+002
3.874503e+003,1.423715e+002
3.876431e+003,1.441858e+002
3.878360e+003,1.391539e+002
3.880288e+003,1.566324e+002
3.882217e+003,1.729279e+002
3.884145e+003,1.488268e+002
3.886073e+003,1.313804e+002
3.888002e+003,1.349439e+002
3.889930e+003,1.373545e+002
3.891859e+003,1.385290e+002
3.893787e+003,1.385808e+002
3.895716e+003,1.416497e+002
3.897644e+003,1.515948e+002
3.899573e+003,1.564732e+002
3.901501e+003,1.554277e+002
3.903430e+003,1.522262e+002
3.905358e+003,1.478865e+002
3.907287e+003,1.381964e+002
3.909215e+003,1.431582e+002
3.911144e+003,1.650770e+002
3.913072e+003,1.669191e+002
3.915000e+003,1.577488e+002
3.916929e+003,1.526271e+002
3.918857e+003,1.499196e+002
3.920786e+003,1.509702e+002
3.922714e+003,1.435472e+002
3.924643e+003,1.326003e+002
3.926571e+003,1.363090e+002
3.928500e+003,1.425215e+002
3.930428e+003,1.435976e+002
3.932357e+003,1.472720e+002
3.934285e+003,1.529928e+002
3.936214e+003,1.456854e+002
3.938142e+003,1.370448e+002
3.940071e+003,1.404838e+002
3.941999e+003,1.418732e+002
3.943927e+003,1.378931e+002
3.945856e+003,1.382178e+002
3.947784e+003,1.412716e+002
3.949713e+003,1.464248e+002
3.951641e+003,1.486662e+002
3.953570e+003,1.464299e+002
3.955498e+003,1.490555e+002
3.957427e+003,1.520553e+002
3.959355e+003,1.366127e+002
3.961284e+003,1.266894e+002
3.963212e+003,1.392045e+002
3.965141e+003,1.432646e+002
3.967069e+003,1.399465e+002
3.968998e+003,1.417587e+002
3.970926e+003,1.434362e+002
3.972854e+003,1.397818e+002
3.974783e+003,1.410846e+002
3.976711e+003,1.469967e+002
3.978640e+003,1.462508e+002
3.980568e+003,1.456334e+002
3.982497e+003,1.531823e+002
3.984425e+003,1.584487e+002
3.986354e+003,1.594526e+002
3.988282e+003,1.517236e+002
3.990211e+003,1.416746e+002
3.992139e+003,1.359722e+002
3.994068e+003,1.350680e+002
3.995996e+003,1.389802e+002
3.997925e+003,1.337906e+002
3.999853e+003,1.276765e+002
4.001781e+003,1.385568e+002
4.003710e+003,1.446415e+002
4.005638e+003,1.388958e+002
4.007567e+003,1.349470e+002
4.009495e+003,1.338847e+002
4.011424e+003,1.387307e+002
4.013352e+003,1.429109e+002
4.015281e+003,1.434768e+002
4.017209e+003,1.430746e+002
4.019138e+003,1.405527e+002
4.021066e+003,1.290534e+002
4.022995e+003,1.245143e+002
4.024923e+003,1.354397e+002
4.026852e+003,1.398142e+002
4.028780e+003,1.392818e+002
4.030708e+003,1.478338e+002
4.032637e+003,1.526871e+002
4.034565e+003,1.447996e+002
4.036494e+003,1.435817e+002
4.038422e+003,1.477789e+002
4.040351e+003,1.470633e+002
4.042279e+003,1.420145e+002
4.044208e+003,1.258493e+002
4.046136e+003,1.297327e+002
4.048065e+003,1.476179e+002
4.049993e+003,1.473124e+002
4.051922e+003,1.430293e+002
4.053850e+003,1.434929e+002
4.055779e+003,1.448572e+002
4.057707e+003,1.452248e+002
4.059635e+003,1.339935e+002
4.061564e+003,1.238114e+002
4.063492e+003,1.225627e+002
4.065421e+003,1.278904e+002
4.067349e+003,1.368266e+002
4.069278e+003,1.320633e+002
4.071206e+003,1.284991e+002
4.073135e+003,1.410788e+002
4.075063e+003,1.465260e+002
4.076992e+003,1.433914e+002
4.078920e+003,1.283506e+002
4.080849e+003,1.195855e+002
4.082777e+003,1.318652e+002
4.084706e+003,1.430166e+002
4.086634e+003,1.483230e+002
4.088563e+003,1.278190e+002
4.090491e+003,1.199537e+002
4.092419e+003,1.528611e+002
4.094348e+003,1.533193e+002
4.096276e+003,1.291851e+002
4.098205e+003,1.426495e+002
4.100133e+003,1.510668e+002
4.102062e+003,1.254695e+002
4.103990e+003,1.167155e+002
4.105919e+003,1.241147e+002
4.107847e+003,1.434279e+002
4.109776e+003,1.526489e+002
4.111704e+003,1.309062e+002
4.113633e+003,1.241850e+002
4.115561e+003,1.285542e+002
4.117490e+003,1.359968e+002
4.119418e+003,1.369047e+002
4.121347e+003,1.258986e+002
4.123275e+003,1.352260e+002
4.125204e+003,1.501740e+002
4.127132e+003,1.350033e+002
4.129061e+003,1.231228e+002
4.130989e+003,1.239504e+002
4.132917e+003,1.324193e+002
4.134846e+003,1.399599e+002
4.136774e+003,1.296849e+002
4.138703e+003,1.281427e+002
4.140631e+003,1.422603e+002
4.142560e+003,1.406349e+002
4.144488e+003,1.348532e+002
4.146417e+003,1.415548e+002
4.148345e+003,1.398491e+002
4.150273e+003,1.269552e+002
4.152202e+003,1.229289e+002
4.154130e+003,1.235786e+002
4.156059e+003,1.253157e+002
4.157987e+003,1.317747e+002
4.159916e+003,1.413976e+002
4.161844e+003,1.449880e+002
4.163773e+003,1.426310e+002
4.165701e+003,1.295639e+002
4.167630e+003,1.306749e+002
4.169558e+003,1.394586e+002
4.171487e+003,1.316011e+002
4.173415e+003,1.240155e+002
4.175344e+003,1.239028e+002
4.177272e+003,1.226777e+002
4.179201e+003,1.233389e+002
4.181129e+003,1.372423e+002
4.183058e+003,1.429160e+002
4.184986e+003,1.356931e+002
4.186915e+003,1.378475e+002
4.188843e+003,1.391015e+002
4.190771e+003,1.219551e+002
4.192700e+003,1.145555e+002
4.194628e+003,1.205554e+002
4.196557e+003,1.292407e+002
4.198485e+003,1.336261e+002
4.200414e+003,1.266213e+002
4.202342e+003,1.222321e+002
4.204271e+003,1.221929e+002
4.206199e+003,1.323915e+002
4.208127e+003,1.359224e+002
4.210056e+003,1.212219e+002
4.211984e+003,1.179882e+002
4.213913e+003,1.229054e+002
4.215841e+003,1.292430e+002
4.217770e+003,1.348354e+002
4.219698e+003,1.396070e+002
4.221627e+003,1.310294e+002
4.223555e+003,1.221410e+002
4.225484e+003,1.311082e+002
4.227412e+003,1.359456e+002
4.229341e+003,1.348535e+002
4.231269e+003,1.372310e+002
4.233198e+003,1.372358e+002
4.235126e+003,1.260719e+002
4.237055e+003,1.301262e+002
4.238983e+003,1.411544e+002
4.240912e+003,1.335439e+002
4.242840e+003,1.306371e+002
4.244769e+003,1.417523e+002
4.246697e+003,1.412465e+002
4.248625e+003,1.360772e+002
4.250554e+003,1.344641e+002
