1.159199e+002,4.433378e+002
1.178484e+002,5.009509e+002
1.197769e+002,5.562680e+002
1.217053e+002,6.093698e+002
1.236338e+002,6.417449e+002
1.255623e+002,6.456778e+002
1.274907e+002,6.334600e+002
1.294192e+002,6.174914e+002
1.313477e+002,5.917203e+002
1.332761e+002,5.687231e+002
1.352046e+002,5.572109e+002
1.371331e+002,5.611934e+002
1.390615e+002,5.483900e+002
1.409900e+002,4.998694e+002
1.429185e+002,4.320863e+002
1.448469e+002,3.743669e+002
1.467754e+002,3.309814e+002
1.487039e+002,2.941929e+002
1.506323e+002,2.626732e+002
1.525608e+002,2.364986e+002
1.544893e+002,2.132662e+002
1.564177e+002,1.920259e+002
1.583462e+002,1.731544e+002
1.602747e+002,1.588671e+002
1.622031e+002,1.502059e+002
1.641316e+002,1.443770e+002
1.660601e+002,1.403159e+002
1.679885e+002,1.406752e+002
1.699170e+002,1.370588e+002
1.718455e+002,1.248967e+002
1.737739e+002,1.044163e+002
1.757024e+002,9.201086e+001
1.776309e+002,9.388196e+001
1.795593e+002,9.997498e+001
1.814878e+002,1.017973e+002
1.834163e+002,9.419815e+001
1.853447e+002,8.763241e+001
1.872732e+002,8.407532e+001
1.892017e+002,8.324635e+001
1.911301e+002,8.313528e+001
1.930586e+002,8.325896e+001
1.949871e+002,8.398789e+001
1.969155e+002,8.607395e+001
1.988440e+002,9.138835e+001
2.007725e+002,9.615245e+001
2.027009e+002,9.996612e+001
2.046294e+002,1.033670e+002
2.065579e+002,1.029899e+002
2.084864e+002,9.742432e+001
2.104148e+002,8.800644e+001
2.123433e+002,7.743266e+001
2.142718e+002,6.329527e+001
2.162002e+002,5.078818e+001
2.181287e+002,4.185659e+001
2.200572e+002,3.734369e+001
2.219856e+002,3.470233e+001
2.239141e+002,3.517960e+001
2.258426e+002,3.730674e+001
2.277710e+002,3.743051e+001
2.296995e+002,3.463657e+001
2.316280e+002,3.076909e+001
2.335564e+002,2.665626e+001
2.354849e+002,2.058092e+001
2.374134e+002,1.673692e+001
2.393418e+002,1.692135e+001
2.412703e+002,1.941272e+001
2.431988e+002,2.036736e+001
2.451272e+002,1.713872e+001
2.470557e+002,1.406578e+001
2.489842e+002,1.368310e+001
2.509126e+002,1.814532e+001
2.528411e+002,2.075292e+001
2.547696e+002,1.902040e+001
2.566980e+002,1.456549e+001
2.586265e+002,1.149055e+001
2.605550e+002,1.062913e+001
2.624834e+002,1.076100e+001
2.644119e+002,1.175368e+001
2.663404e+002,1.400026e+001
2.682688e+002,1.551435e+001
2.701973e+002,1.499443e+001
2.721258e+002,1.306068e+001
2.740542e+002,1.261540e+001
2.759827e+002,1.564542e+001
2.779112e+002,1.855524e+001
2.798396e+002,1.881260e+001
2.817681e+002,1.588135e+001
2.836966e+002,1.389376e+001
2.856250e+002,1.434421e+001
2.875535e+002,1.661661e+001
2.894820e+002,1.825355e+001
2.914104e+002,1.767036e+001
2.933389e+002,1.789418e+001
2.952674e+002,2.091190e+001
2.971958e+002,2.759779e+001
2.991243e+002,3.289248e+001
3.010528e+002,3.569718e+001
3.029813e+002,3.652369e+001
3.049097e+002,3.708627e+001
3.068382e+002,3.769855e+001
3.087667e+002,3.767403e+001
3.106951e+002,3.662080e+001
3.126236e+002,3.417005e+001
3.145521e+002,3.181031e+001
3.164805e+002,2.939873e+001
3.184090e+002,2.723846e+001
3.203375e+002,2.594196e+001
3.222659e+002,2.621841e+001
3.241944e+002,2.634847e+001
3.261229e+002,2.548397e+001
3.280513e+002,2.273600e+001
3.299798e+002,2.137108e+001
3.319083e+002,2.166375e+001
3.338367e+002,2.326992e+001
3.357652e+002,2.553114e+001
3.376937e+002,2.848386e+001
3.396221e+002,3.205645e+001
3.415506e+002,3.648314e+001
3.434791e+002,4.208602e+001
3.454075e+002,4.665344e+001
3.473360e+002,4.973848e+001
3.492645e+002,5.203709e+001
3.511929e+002,5.457566e+001
3.531214e+002,5.869120e+001
3.550499e+002,6.030349e+001
3.569783e+002,5.727475e+001
3.589068e+002,4.971910e+001
3.608353e+002,4.452386e+001
3.627637e+002,4.435282e+001
3.646922e+002,4.446828e+001
3.666207e+002,4.197903e+001
3.685491e+002,3.520294e+001
3.704776e+002,2.931482e+001
3.724061e+002,2.522797e+001
3.743345e+002,2.268341e+001
3.762630e+002,2.037644e+001
3.781915e+002,1.772220e+001
3.801199e+002,1.603123e+001
3.820484e+002,1.611058e+001
3.839769e+002,1.936799e+001
3.859053e+002,2.088817e+001
3.878338e+002,1.875588e+001
3.897623e+002,1.522351e+001
3.916907e+002,1.403512e+001
3.936192e+002,1.671939e+001
3.955477e+002,1.908302e+001
3.974761e+002,1.938494e+001
3.994046e+002,1.702754e+001
4.013331e+002,1.605957e+001
4.032615e+002,1.799860e+001
4.051900e+002,2.029144e+001
4.071185e+002,2.069029e+001
4.090469e+002,1.848688e+001
4.109754e+002,1.663904e+001
4.129039e+002,1.557371e+001
4.148323e+002,1.533969e+001
4.167608e+002,1.625842e+001
4.186893e+002,1.967810e+001
4.206177e+002,2.296421e+001
4.225462e+002,2.516384e+001
4.244747e+002,2.641200e+001
4.264032e+002,2.603972e+001
4.283316e+002,2.236849e+001
4.302601e+002,1.748870e+001
4.321886e+002,1.493459e+001
4.341170e+002,1.497566e+001
4.360455e+002,1.638843e+001
4.379740e+002,1.973097e+001
4.399024e+002,2.476958e+001
4.418309e+002,2.819565e+001
4.437594e+002,2.728108e+001
4.456878e+002,2.634572e+001
4.476163e+002,2.892323e+001
4.495448e+002,3.581480e+001
4.514732e+002,4.257279e+001
4.534017e+002,4.882156e+001
4.553302e+002,5.427970e+001
4.572586e+002,5.791875e+001
4.591871e+002,6.001899e+001
4.611156e+002,6.002390e+001
4.630440e+002,5.688861e+001
4.649725e+002,5.068306e+001
4.669010e+002,4.444740e+001
4.688294e+002,3.770098e+001
4.707579e+002,3.156969e+001
4.726864e+002,2.693914e+001
4.746148e+002,2.450716e+001
4.765433e+002,2.293350e+001
4.784718e+002,2.255129e+001
4.804002e+002,2.305436e+001
4.823287e+002,2.356915e+001
4.842572e+002,2.438127e+001
4.861856e+002,2.477890e+001
4.881141e+002,2.412847e+001
4.900426e+002,2.164926e+001
4.919710e+002,2.107159e+001
4.938995e+002,2.459994e+001
4.958280e+002,2.867334e+001
4.977564e+002,2.977015e+001
4.996849e+002,2.651276e+001
5.016134e+002,2.442418e+001
5.035418e+002,2.562353e+001
5.054703e+002,2.920469e+001
5.073988e+002,3.140611e+001
5.093272e+002,3.051068e+001
5.112557e+002,3.006236e+001
5.131842e+002,3.226400e+001
5.151127e+002,3.692382e+001
5.170411e+002,3.965877e+001
5.189696e+002,3.842267e+001
5.208981e+002,3.582027e+001
5.228265e+002,3.380682e+001
5.247550e+002,3.273047e+001
5.266835e+002,3.155185e+001
5.286119e+002,3.001307e+001
5.305404e+002,2.829537e+001
5.324689e+002,2.667631e+001
5.343973e+002,2.478832e+001
5.363258e+002,2.348855e+001
5.382543e+002,2.321383e+001
5.401827e+002,2.407202e+001
5.421112e+002,2.476289e+001
5.440397e+002,2.533454e+001
5.459681e+002,2.565396e+001
5.478966e+002,2.556635e+001
5.498251e+002,2.482677e+001
5.517535e+002,2.452394e+001
5.536820e+002,2.525621e+001
5.556105e+002,2.634089e+001
5.575389e+002,2.657005e+001
5.594674e+002,2.542541e+001
5.613959e+002,2.464220e+001
5.633243e+002,2.516774e+001
5.652528e+002,2.662884e+001
5.671813e+002,2.741218e+001
5.691097e+002,2.762387e+001
5.710382e+002,2.696708e+001
5.729667e+002,2.462675e+001
5.748951e+002,2.035586e+001
5.768236e+002,1.746463e+001
5.787521e+002,1.639721e+001
5.806805e+002,1.690180e+001
5.826090e+002,1.838949e+001
5.845375e+002,1.962201e+001
5.864659e+002,2.470551e+001
5.883944e+002,3.741556e+001
5.903229e+002,5.344043e+001
5.922513e+002,6.489281e+001
5.941798e+002,7.221581e+001
5.961083e+002,7.473637e+001
5.980367e+002,6.912653e+001
5.999652e+002,5.651061e+001
6.018937e+002,5.049203e+001
6.038221e+002,5.157996e+001
6.057506e+002,5.834735e+001
6.076791e+002,7.547255e+001
6.096075e+002,1.030790e+002
6.115360e+002,1.197707e+002
6.134645e+002,1.194053e+002
6.153929e+002,1.085786e+002
6.173214e+002,9.093935e+001
6.192499e+002,5.791842e+001
6.211783e+002,3.483387e+001
6.231068e+002,2.819559e+001
6.250353e+002,3.056469e+001
6.269637e+002,3.033628e+001
6.288922e+002,2.626670e+001
6.308207e+002,2.290237e+001
6.327491e+002,2.224487e+001
6.346776e+002,2.358282e+001
6.366061e+002,2.409901e+001
6.385345e+002,2.239978e+001
6.404630e+002,2.123677e+001
6.423915e+002,2.229897e+001
6.443199e+002,2.517940e+001
6.462484e+002,2.613674e+001
6.481769e+002,2.290080e+001
6.501053e+002,1.961479e+001
6.520338e+002,1.848532e+001
6.539623e+002,2.017698e+001
6.558907e+002,2.230510e+001
6.578192e+002,2.565709e+001
6.597477e+002,2.890677e+001
6.616761e+002,3.011446e+001
6.636046e+002,2.848890e+001
6.655331e+002,2.894334e+001
6.674615e+002,3.596275e+001
6.693900e+002,4.477734e+001
6.713185e+002,4.912854e+001
6.732469e+002,4.425499e+001
6.751754e+002,4.015681e+001
6.771039e+002,3.851638e+001
6.790323e+002,3.839717e+001
6.809608e+002,3.705562e+001
6.828893e+002,3.349075e+001
6.848177e+002,3.037969e+001
6.867462e+002,2.885180e+001
6.886747e+002,2.882100e+001
6.906031e+002,2.867717e+001
6.925316e+002,2.871263e+001
6.944601e+002,2.836907e+001
6.963885e+002,2.705469e+001
6.983170e+002,2.486022e+001
7.002455e+002,2.336208e+001
7.021740e+002,2.296424e+001
7.041024e+002,2.312805e+001
7.060309e+002,2.365548e+001
7.079594e+002,2.483863e+001
7.098878e+002,2.538826e+001
7.118163e+002,2.443540e+001
7.137448e+002,2.339796e+001
7.156732e+002,2.386543e+001
7.176017e+002,2.611569e+001
7.195302e+002,2.764453e+001
7.214586e+002,2.616543e+001
7.233871e+002,2.464054e+001
7.253156e+002,2.614946e+001
7.272440e+002,3.219577e+001
7.291725e+002,3.898071e+001
7.311010e+002,4.556992e+001
7.330294e+002,5.280909e+001
7.349579e+002,6.363725e+001
7.368864e+002,8.283451e+001
7.388149e+002,9.409955e+001
7.407433e+002,8.682573e+001
7.426718e+002,6.815460e+001
7.446003e+002,5.321083e+001
7.465287e+002,4.391044e+001
7.484572e+002,3.663947e+001
7.503857e+002,3.084565e+001
7.523141e+002,2.671502e+001
7.542426e+002,2.457437e+001
7.561711e+002,2.541005e+001
7.580995e+002,2.663614e+001
7.600280e+002,2.698889e+001
7.619565e+002,2.673547e+001
7.638849e+002,2.742606e+001
7.658134e+002,2.912279e+001
7.677419e+002,3.186066e+001
7.696703e+002,3.636938e+001
7.715988e+002,4.261060e+001
7.735273e+002,4.741490e+001
7.754557e+002,5.179911e+001
7.773842e+002,5.358452e+001
7.793127e+002,5.039103e+001
7.812411e+002,4.267528e+001
7.831696e+002,3.709651e+001
7.850981e+002,3.549612e+001
7.870266e+002,3.522728e+001
7.889550e+002,3.519638e+001
7.908835e+002,3.533914e+001
7.928120e+002,3.661843e+001
7.947404e+002,3.740951e+001
7.966689e+002,4.077903e+001
7.985974e+002,4.769530e+001
8.005258e+002,5.796498e+001
8.024543e+002,7.379676e+001
8.043828e+002,9.894452e+001
8.063112e+002,1.272680e+002
8.082397e+002,1.579386e+002
8.101682e+002,1.950303e+002
8.120966e+002,2.180907e+002
8.140251e+002,2.181202e+002
8.159536e+002,2.109250e+002
8.178820e+002,2.066267e+002
8.198105e+002,2.053062e+002
8.217390e+002,2.040909e+002
8.236674e+002,2.110423e+002
8.255959e+002,2.115169e+002
8.275244e+002,1.942590e+002
8.294528e+002,1.485059e+002
8.313813e+002,1.119674e+002
8.333098e+002,8.424441e+001
8.352382e+002,6.526139e+001
8.371667e+002,5.782484e+001
8.390952e+002,6.196770e+001
8.410236e+002,6.514330e+001
8.429521e+002,6.519567e+001
8.448806e+002,6.314005e+001
8.468090e+002,5.915938e+001
8.487375e+002,5.171083e+001
8.506660e+002,4.646740e+001
8.525944e+002,4.528670e+001
8.545229e+002,4.487246e+001
8.564514e+002,4.258050e+001
8.583798e+002,3.836610e+001
8.603083e+002,3.418096e+001
8.622368e+002,2.900446e+001
8.641652e+002,2.520656e+001
8.660937e+002,2.464181e+001
8.680222e+002,2.815038e+001
8.699506e+002,3.100757e+001
8.718791e+002,3.399106e+001
8.738076e+002,3.545737e+001
8.757360e+002,3.312809e+001
8.776645e+002,2.620450e+001
8.795930e+002,2.277998e+001
8.815214e+002,2.609380e+001
8.834499e+002,3.059208e+001
8.853784e+002,3.323498e+001
8.873068e+002,3.403755e+001
8.892353e+002,3.403817e+001
8.911638e+002,3.156370e+001
8.930922e+002,2.988023e+001
8.950207e+002,3.074697e+001
8.969492e+002,3.451503e+001
8.988776e+002,3.824365e+001
9.008061e+002,4.238825e+001
9.027346e+002,4.605128e+001
9.046630e+002,4.968267e+001
9.065915e+002,5.288830e+001
9.085200e+002,5.251191e+001
9.104484e+002,4.569726e+001
9.123769e+002,3.854366e+001
9.143054e+002,3.292451e+001
9.162338e+002,2.883533e+001
9.181623e+002,2.679489e+001
9.200908e+002,2.851421e+001
9.220192e+002,3.016488e+001
9.239477e+002,3.037493e+001
9.258762e+002,2.950745e+001
9.278046e+002,2.883838e+001
9.297331e+002,2.799854e+001
9.316616e+002,2.810313e+001
9.335900e+002,3.016428e+001
9.355185e+002,3.346530e+001
9.374470e+002,3.602024e+001
9.393754e+002,3.770506e+001
9.413039e+002,3.870794e+001
9.432324e+002,3.923276e+001
9.451608e+002,3.907513e+001
9.470893e+002,3.741940e+001
9.490178e+002,3.317447e+001
9.509462e+002,3.057241e+001
9.528747e+002,3.191253e+001
9.548032e+002,3.483577e+001
9.567316e+002,3.675307e+001
9.586601e+002,3.743397e+001
9.605886e+002,3.784012e+001
9.625170e+002,3.743472e+001
9.644455e+002,3.728977e+001
9.663740e+002,3.810529e+001
9.683024e+002,3.930817e+001
9.702309e+002,4.336693e+001
9.721594e+002,4.945070e+001
9.740878e+002,5.907832e+001
9.760163e+002,7.174780e+001
9.779448e+002,8.746973e+001
9.798733e+002,1.128898e+002
9.818018e+002,1.467029e+002
9.837302e+002,1.940982e+002
9.856587e+002,2.544947e+002
9.875872e+002,3.273995e+002
9.895156e+002,4.232039e+002
9.914441e+002,6.143408e+002
9.933726e+002,7.467273e+002
9.953010e+002,7.623019e+002
9.972295e+002,6.770223e+002
9.991580e+002,5.562327e+002
1.001086e+003,3.685602e+002
1.003015e+003,2.106833e+002
1.004943e+003,1.247139e+002
1.006872e+003,8.685543e+001
1.008800e+003,6.549606e+001
1.010729e+003,6.548448e+001
1.012657e+003,7.037292e+001
1.014586e+003,7.574310e+001
1.016514e+003,8.476009e+001
1.018443e+003,1.018812e+002
1.020371e+003,1.322615e+002
1.022300e+003,1.581432e+002
1.024228e+003,1.864274e+002
1.026156e+003,2.043057e+002
1.028085e+003,1.987629e+002
1.030013e+003,1.722541e+002
1.031942e+003,1.441510e+002
1.033870e+003,1.134861e+002
1.035799e+003,8.613737e+001
1.037727e+003,6.402142e+001
1.039656e+003,4.716305e+001
1.041584e+003,3.506850e+001
1.043513e+003,2.965302e+001
1.045441e+003,2.687915e+001
1.047370e+003,2.708450e+001
1.049298e+003,2.930151e+001
1.051227e+003,3.136998e+001
1.053155e+003,3.338981e+001
1.055083e+003,3.505971e+001
1.057012e+003,3.646391e+001
1.058940e+003,3.736261e+001
1.060869e+003,3.728333e+001
1.062797e+003,3.594339e+001
1.064726e+003,3.538869e+001
1.066654e+003,3.675048e+001
1.068583e+003,3.829196e+001
1.070511e+003,3.954145e+001
1.072440e+003,4.064137e+001
1.074368e+003,3.938015e+001
1.076297e+003,3.182331e+001
1.078225e+003,2.659201e+001
1.080154e+003,2.898424e+001
1.082082e+003,3.593772e+001
1.084010e+003,3.839463e+001
1.085939e+003,3.449409e+001
1.087867e+003,3.098264e+001
1.089796e+003,3.074581e+001
1.091724e+003,3.170842e+001
1.093653e+003,3.136441e+001
1.095581e+003,2.899280e+001
1.097510e+003,2.761808e+001
1.099438e+003,2.748683e+001
1.101367e+003,2.843434e+001
1.103295e+003,3.074182e+001
1.105224e+003,3.457545e+001
1.107152e+003,3.775270e+001
1.109081e+003,3.875679e+001
1.111009e+003,4.085175e+001
1.112938e+003,4.689842e+001
1.114866e+003,5.470833e+001
1.116794e+003,5.912530e+001
1.118723e+003,5.912876e+001
1.120651e+003,5.809207e+001
1.122580e+003,5.747757e+001
1.124508e+003,5.601963e+001
1.126437e+003,5.159446e+001
1.128365e+003,4.186723e+001
1.130294e+003,3.677965e+001
1.132222e+003,3.909218e+001
1.134151e+003,4.357465e+001
1.136079e+003,4.704943e+001
1.138008e+003,4.982585e+001
1.139936e+003,5.597273e+001
1.141865e+003,6.732239e+001
1.143793e+003,7.914375e+001
1.145721e+003,9.345872e+001
1.147650e+003,1.058144e+002
1.149578e+003,1.090936e+002
1.151507e+003,1.014857e+002
1.153435e+003,9.253514e+001
1.155364e+003,8.174592e+001
1.157292e+003,7.280261e+001
1.159221e+003,6.892521e+001
1.161149e+003,7.106261e+001
1.163078e+003,7.142011e+001
1.165006e+003,6.550427e+001
1.166935e+003,6.311179e+001
1.168863e+003,6.750092e+001
1.170792e+003,7.764527e+001
1.172720e+003,9.231042e+001
1.174648e+003,1.163870e+002
1.176577e+003,1.319390e+002
1.178505e+003,1.328410e+002
1.180434e+003,1.252243e+002
1.182362e+003,1.113623e+002
1.184291e+003,9.164333e+001
1.186219e+003,7.844633e+001
1.188148e+003,7.324439e+001
1.190076e+003,7.565644e+001
1.192005e+003,8.345583e+001
1.193933e+003,9.817581e+001
1.195862e+003,1.254089e+002
1.197790e+003,1.759797e+002
1.199719e+003,2.221947e+002
1.201647e+003,2.729675e+002
1.203575e+003,3.105012e+002
1.205504e+003,3.153288e+002
1.207432e+003,2.829240e+002
1.209361e+003,2.467159e+002
1.211289e+003,2.012301e+002
1.213218e+003,1.592098e+002
1.215146e+003,1.250743e+002
1.217075e+003,9.857796e+001
1.219003e+003,7.972668e+001
1.220932e+003,6.985925e+001
1.222860e+003,6.264780e+001
1.224789e+003,5.816647e+001
1.226717e+003,5.437515e+001
1.228646e+003,4.974197e+001
1.230574e+003,4.409330e+001
1.232502e+003,3.917511e+001
1.234431e+003,3.429382e+001
1.236359e+003,3.103691e+001
1.238288e+003,3.014380e+001
1.240216e+003,3.112504e+001
1.242145e+003,3.336091e+001
1.244073e+003,3.823810e+001
1.246002e+003,4.082227e+001
1.247930e+003,3.854667e+001
1.249859e+003,3.583625e+001
1.251787e+003,3.607991e+001
1.253716e+003,3.850401e+001
1.255644e+003,3.965254e+001
1.257573e+003,3.886233e+001
1.259501e+003,3.778791e+001
1.261429e+003,3.637148e+001
1.263358e+003,3.534260e+001
1.265286e+003,3.576319e+001
1.267215e+003,3.790436e+001
1.269143e+003,3.971248e+001
1.271072e+003,4.056295e+001
1.273000e+003,4.142577e+001
1.274929e+003,4.177514e+001
1.276857e+003,4.236002e+001
1.278786e+003,4.570032e+001
1.280714e+003,5.610708e+001
1.282643e+003,6.308634e+001
1.284571e+003,6.309785e+001
1.286500e+003,6.229111e+001
1.288428e+003,6.386467e+001
1.290356e+003,6.826254e+001
1.292285e+003,7.991972e+001
1.294213e+003,1.043636e+002
1.296142e+003,1.260352e+002
1.298070e+003,1.416002e+002
1.299999e+003,1.499093e+002
1.301927e+003,1.484943e+002
1.303856e+003,1.367358e+002
1.305784e+003,1.252643e+002
1.307713e+003,1.153205e+002
1.309641e+003,1.064726e+002
1.311570e+003,9.864173e+001
1.313498e+003,9.172106e+001
1.315427e+003,8.519434e+001
1.317355e+003,7.790913e+001
1.319283e+003,7.366454e+001
1.321212e+003,7.356361e+001
1.323140e+003,7.559074e+001
1.325069e+003,7.927126e+001
1.326997e+003,8.437484e+001
1.328926e+003,8.840871e+001
1.330854e+003,9.160802e+001
1.332783e+003,9.349749e+001
1.334711e+003,9.503189e+001
1.336640e+003,9.450844e+001
1.338568e+003,8.836317e+001
1.340497e+003,7.734803e+001
1.342425e+003,7.098583e+001
1.344354e+003,7.267215e+001
1.346282e+003,7.408089e+001
1.348210e+003,7.168109e+001
1.350139e+003,6.734537e+001
1.352068e+003,6.263433e+001
1.353996e+003,5.739473e+001
1.355924e+003,5.445425e+001
1.357853e+003,5.565377e+001
1.359781e+003,5.721097e+001
1.361710e+003,5.882054e+001
1.363638e+003,5.944402e+001
1.365567e+003,5.642384e+001
1.367495e+003,4.730185e+001
1.369424e+003,4.137949e+001
1.371352e+003,4.106271e+001
1.373281e+003,4.184583e+001
1.375209e+003,4.170260e+001
1.377138e+003,4.104168e+001
1.379066e+003,4.118224e+001
1.380995e+003,4.226521e+001
1.382923e+003,4.385993e+001
1.384851e+003,4.746330e+001
1.386780e+003,5.011101e+001
1.388708e+003,4.698283e+001
1.390637e+003,4.097628e+001
1.392565e+003,4.399937e+001
1.394494e+003,5.841443e+001
1.396422e+003,7.438708e+001
1.398351e+003,9.442825e+001
1.400279e+003,1.108659e+002
1.402208e+003,1.181524e+002
1.404136e+003,1.174778e+002
1.406065e+003,1.119172e+002
1.407993e+003,1.007548e+002
1.409922e+003,8.730006e+001
1.411850e+003,6.805004e+001
1.413778e+003,5.095465e+001
1.415707e+003,4.139172e+001
1.417635e+003,3.906291e+001
1.419564e+003,4.082879e+001
1.421492e+003,4.890411e+001
1.423421e+003,5.670307e+001
1.425349e+003,6.349088e+001
1.427278e+003,6.910135e+001
1.429206e+003,7.238292e+001
1.431135e+003,7.338338e+001
1.433063e+003,7.740400e+001
1.434992e+003,9.178082e+001
1.436920e+003,9.889429e+001
1.438849e+003,9.288408e+001
1.440777e+003,8.201320e+001
1.442705e+003,7.218173e+001
1.444634e+003,6.346067e+001
1.446562e+003,5.587672e+001
1.448491e+003,4.851359e+001
1.450419e+003,4.372613e+001
1.452348e+003,4.338110e+001
1.454276e+003,4.457224e+001
1.456205e+003,4.505231e+001
1.458133e+003,4.497818e+001
1.460062e+003,4.530797e+001
1.461990e+003,4.612473e+001
1.463919e+003,4.716235e+001
1.465847e+003,4.796646e+001
1.467776e+003,4.930805e+001
1.469704e+003,5.244723e+001
1.471632e+003,5.664581e+001
1.473561e+003,5.900863e+001
1.475489e+003,5.857602e+001
1.477418e+003,5.919974e+001
1.479346e+003,6.213993e+001
1.481275e+003,6.625480e+001
1.483203e+003,7.306437e+001
1.485132e+003,8.056168e+001
1.487060e+003,8.027420e+001
1.488989e+003,6.916685e+001
1.490917e+003,5.990971e+001
1.492846e+003,5.597613e+001
1.494774e+003,5.360064e+001
1.496703e+003,5.120053e+001
1.498631e+003,4.899364e+001
1.500559e+003,4.771544e+001
1.502488e+003,4.777127e+001
1.504416e+003,4.759468e+001
1.506345e+003,4.634214e+001
1.508273e+003,4.564890e+001
1.510202e+003,4.623330e+001
1.512130e+003,4.777791e+001
1.514059e+003,4.968948e+001
1.515987e+003,5.191961e+001
1.517916e+003,5.474414e+001
1.519844e+003,5.935632e+001
1.521773e+003,6.307907e+001
1.523701e+003,6.553767e+001
1.525630e+003,6.641999e+001
1.527558e+003,6.482593e+001
1.529486e+003,6.036497e+001
1.531415e+003,5.661779e+001
1.533343e+003,5.350830e+001
1.535272e+003,5.114764e+001
1.537200e+003,4.995425e+001
1.539129e+003,4.921979e+001
1.541057e+003,4.771211e+001
1.542986e+003,4.584050e+001
1.544914e+003,4.713289e+001
1.546843e+003,5.407915e+001
1.548771e+003,5.781081e+001
1.550700e+003,5.405169e+001
1.552628e+003,4.898679e+001
1.554557e+003,4.613914e+001
1.556485e+003,4.499131e+001
1.558413e+003,4.412754e+001
1.560342e+003,4.347615e+001
1.562270e+003,4.340218e+001
1.564199e+003,4.315639e+001
1.566127e+003,4.465435e+001
1.568056e+003,4.719832e+001
1.569984e+003,5.304955e+001
1.571913e+003,6.620187e+001
1.573841e+003,8.631622e+001
1.575770e+003,1.068435e+002
1.577698e+003,1.328920e+002
1.579627e+003,1.457352e+002
1.581555e+003,1.260111e+002
1.583484e+003,1.014121e+002
1.585412e+003,9.218603e+001
1.587340e+003,9.679680e+001
1.589269e+003,1.111963e+002
1.591197e+003,1.391783e+002
1.593126e+003,1.603933e+002
1.595054e+003,1.663060e+002
1.596983e+003,1.690469e+002
1.598911e+003,1.794299e+002
1.600840e+003,1.895283e+002
1.602768e+003,1.818964e+002
1.604697e+003,1.550498e+002
1.606625e+003,1.294467e+002
1.608554e+003,1.051085e+002
1.610482e+003,8.658538e+001
1.612411e+003,7.719292e+001
1.614339e+003,7.269985e+001
1.616267e+003,7.017808e+001
1.618196e+003,6.953130e+001
1.620124e+003,7.030468e+001
1.622053e+003,7.394228e+001
1.623981e+003,7.476620e+001
1.625910e+003,6.926469e+001
1.627838e+003,6.327655e+001
1.629767e+003,5.899447e+001
1.631695e+003,5.622134e+001
1.633624e+003,5.493568e+001
1.635552e+003,5.541449e+001
1.637481e+003,5.528937e+001
1.639409e+003,5.469133e+001
1.641338e+003,5.301514e+001
1.643266e+003,4.875895e+001
1.645194e+003,4.467893e+001
1.647123e+003,4.289280e+001
1.649051e+003,4.319278e+001
1.650980e+003,4.475762e+001
1.652908e+003,4.878640e+001
1.654837e+003,5.047104e+001
1.656765e+003,4.724212e+001
1.658694e+003,4.399953e+001
1.660622e+003,4.234085e+001
1.662551e+003,4.163701e+001
1.664479e+003,4.099343e+001
1.666408e+003,4.037260e+001
1.668336e+003,4.112320e+001
1.670265e+003,4.481438e+001
1.672193e+003,4.680956e+001
1.674121e+003,4.560431e+001
1.676050e+003,4.354197e+001
1.677978e+003,4.117974e+001
1.679907e+003,3.900505e+001
1.681835e+003,3.820138e+001
1.683764e+003,3.908501e+001
1.685692e+003,3.967861e+001
1.687621e+003,3.972166e+001
1.689549e+003,3.979123e+001
1.691478e+003,3.953485e+001
1.693406e+003,3.982373e+001
1.695335e+003,4.215308e+001
1.697263e+003,4.551987e+001
1.699192e+003,4.632118e+001
1.701120e+003,4.370003e+001
1.703048e+003,4.167390e+001
1.704977e+003,4.086745e+001
1.706905e+003,4.004958e+001
1.708834e+003,3.845345e+001
1.710762e+003,3.708104e+001
1.712691e+003,3.712052e+001
1.714619e+003,3.822443e+001
1.716548e+003,3.847678e+001
1.718476e+003,3.761743e+001
1.720405e+003,3.686466e+001
1.722333e+003,3.651704e+001
1.724262e+003,3.605321e+001
1.726190e+003,3.512134e+001
1.728119e+003,3.415135e+001
1.730047e+003,3.320027e+001
1.731975e+003,3.243838e+001
1.733904e+003,3.344621e+001
1.735832e+003,3.700209e+001
1.737761e+003,3.966882e+001
1.739689e+003,4.105688e+001
1.741618e+003,4.147589e+001
1.743546e+003,4.016760e+001
1.745475e+003,3.865696e+001
1.747403e+003,3.872397e+001
1.749332e+003,4.006225e+001
1.751260e+003,4.033880e+001
1.753189e+003,3.930113e+001
1.755117e+003,3.821318e+001
1.757046e+003,3.684947e+001
1.758974e+003,3.613971e+001
1.760902e+003,3.696654e+001
1.762831e+003,3.814347e+001
1.764759e+003,3.838474e+001
1.766688e+003,3.802139e+001
1.768616e+003,3.886718e+001
1.770545e+003,4.136362e+001
1.772473e+003,4.223835e+001
1.774402e+003,3.985804e+001
1.776330e+003,3.780653e+001
1.778259e+003,3.847499e+001
1.780187e+003,3.910025e+001
1.782116e+003,3.618238e+001
1.784044e+003,3.171556e+001
1.785973e+003,3.208455e+001
1.787901e+003,3.782597e+001
1.789829e+003,4.123410e+001
1.791758e+003,4.069883e+001
1.793686e+003,3.922489e+001
1.795615e+003,3.741138e+001
1.797543e+003,3.548605e+001
1.799472e+003,3.279559e+001
1.801400e+003,3.042557e+001
1.803329e+003,3.090023e+001
1.805257e+003,3.412941e+001
1.807186e+003,3.648310e+001
1.809114e+003,3.743404e+001
1.811043e+003,3.804190e+001
1.812971e+003,3.824013e+001
1.814900e+003,3.859846e+001
1.816828e+003,4.034146e+001
1.818756e+003,4.190958e+001
1.820685e+003,4.002103e+001
1.822613e+003,3.543372e+001
1.824542e+003,3.468105e+001
1.826470e+003,3.959954e+001
1.828399e+003,4.239898e+001
1.830327e+003,3.917574e+001
1.832256e+003,3.717885e+001
1.834184e+003,4.122713e+001
1.836113e+003,4.579067e+001
1.838041e+003,4.503181e+001
1.839970e+003,4.039360e+001
1.841898e+003,3.697132e+001
1.843827e+003,3.493336e+001
1.845755e+003,3.351492e+001
1.847684e+003,3.197043e+001
1.849612e+003,3.212740e+001
1.851541e+003,3.579694e+001
1.853469e+003,3.964231e+001
1.855397e+003,4.260364e+001
1.857326e+003,4.386910e+001
1.859254e+003,4.087954e+001
1.861183e+003,3.354076e+001
1.863111e+003,3.060880e+001
1.865040e+003,3.418462e+001
1.866968e+003,3.757477e+001
1.868897e+003,4.182697e+001
1.870825e+003,4.384922e+001
1.872754e+003,4.028516e+001
1.874682e+003,3.641821e+001
1.876611e+003,3.783459e+001
1.878539e+003,4.226131e+001
1.880468e+003,4.267989e+001
1.882396e+003,3.879669e+001
1.884324e+003,3.587502e+001
1.886253e+003,3.407312e+001
1.888181e+003,3.384619e+001
1.890110e+003,3.667361e+001
1.892038e+003,3.913150e+001
1.893967e+003,3.865044e+001
1.895895e+003,3.759097e+001
1.897824e+003,3.910579e+001
1.899752e+003,4.198777e+001
1.901681e+003,4.190918e+001
1.903609e+003,3.855651e+001
1.905538e+003,3.646897e+001
1.907466e+003,3.624017e+001
1.909395e+003,3.720039e+001
1.911323e+003,4.177821e+001
1.913251e+003,4.444593e+001
1.915180e+003,3.937748e+001
1.917108e+003,3.255803e+001
1.919037e+003,3.273619e+001
1.920965e+003,3.848954e+001
1.922894e+003,4.079958e+001
1.924822e+003,3.815761e+001
1.926751e+003,3.792526e+001
1.928679e+003,4.333667e+001
1.930608e+003,4.674546e+001
1.932536e+003,4.576164e+001
1.934465e+003,4.356924e+001
1.936393e+003,4.158642e+001
1.938322e+003,3.966938e+001
1.940250e+003,3.695736e+001
1.942178e+003,3.390451e+001
1.944107e+003,3.415477e+001
1.946035e+003,3.875903e+001
1.947964e+003,4.243862e+001
1.949892e+003,4.583897e+001
1.951821e+003,4.644150e+001
1.953749e+003,4.061205e+001
1.955678e+003,3.571948e+001
1.957606e+003,3.590955e+001
1.959535e+003,3.833455e+001
1.961463e+003,4.011504e+001
1.963392e+003,4.147481e+001
1.965320e+003,4.365430e+001
1.967249e+003,4.671286e+001
1.969177e+003,4.664110e+001
1.971105e+003,4.134719e+001
1.973034e+003,3.855766e+001
1.974962e+003,4.260714e+001
1.976891e+003,4.622024e+001
1.978819e+003,4.568773e+001
1.980748e+003,4.362843e+001
1.982676e+003,4.206161e+001
1.984605e+003,4.091780e+001
1.986533e+003,3.991451e+001
1.988462e+003,3.899813e+001
1.990390e+003,3.913110e+001
1.992319e+003,4.097014e+001
1.994247e+003,4.272473e+001
1.996176e+003,4.524483e+001
1.998104e+003,4.647415e+001
2.000032e+003,4.483036e+001
2.001961e+003,4.289325e+001
2.003889e+003,4.225344e+001
2.005818e+003,4.236684e+001
2.007746e+003,4.251954e+001
2.009675e+003,4.271092e+001
2.011603e+003,4.302903e+001
2.013532e+003,4.348661e+001
2.015460e+003,4.387554e+001
2.017389e+003,4.409454e+001
2.019317e+003,4.458971e+001
2.021246e+003,4.576471e+001
2.023174e+003,4.679354e+001
2.025103e+003,4.674515e+001
2.027031e+003,4.688674e+001
2.028959e+003,4.973459e+001
2.030888e+003,5.289063e+001
2.032816e+003,5.050326e+001
2.034745e+003,4.308985e+001
2.036673e+003,3.990269e+001
2.038602e+003,4.267678e+001
2.040530e+003,4.455436e+001
2.042459e+003,4.413406e+001
2.044387e+003,4.477749e+001
2.046316e+003,4.940795e+001
2.048244e+003,5.217026e+001
2.050173e+003,4.872118e+001
2.052101e+003,4.372133e+001
2.054030e+003,4.057448e+001
2.055958e+003,3.955374e+001
2.057886e+003,4.226252e+001
2.059815e+003,4.822233e+001
2.061743e+003,5.264157e+001
2.063672e+003,5.543587e+001
2.065600e+003,5.524636e+001
2.067529e+003,5.022588e+001
2.069457e+003,4.683580e+001
2.071386e+003,4.827351e+001
2.073314e+003,5.000292e+001
2.075243e+003,4.945391e+001
2.077171e+003,4.859606e+001
2.079100e+003,4.991532e+001
2.081028e+003,5.187591e+001
2.082957e+003,5.062381e+001
2.084885e+003,4.660022e+001
2.086813e+003,4.613116e+001
2.088742e+003,5.138794e+001
2.090670e+003,5.353478e+001
2.092599e+003,5.131850e+001
2.094527e+003,4.838199e+001
2.096456e+003,4.282963e+001
2.098384e+003,4.025344e+001
2.100313e+003,4.459851e+001
2.102241e+003,5.043456e+001
2.104170e+003,5.616912e+001
2.106098e+003,5.995292e+001
2.108027e+003,5.742645e+001
2.109955e+003,5.128417e+001
2.111884e+003,5.037061e+001
2.113812e+003,5.475200e+001
2.115740e+003,5.675412e+001
2.117669e+003,5.514770e+001
2.119597e+003,5.384486e+001
2.121526e+003,5.239509e+001
2.123454e+003,5.265829e+001
2.125383e+003,5.716965e+001
2.127311e+003,6.074478e+001
2.129240e+003,6.071856e+001
2.131168e+003,5.877021e+001
2.133097e+003,5.532758e+001
2.135025e+003,5.156495e+001
2.136954e+003,4.932107e+001
2.138882e+003,4.865144e+001
2.140811e+003,5.070750e+001
2.142739e+003,5.549420e+001
2.144667e+003,5.667204e+001
2.146596e+003,5.277499e+001
2.148524e+003,4.969331e+001
2.150453e+003,4.883087e+001
2.152381e+003,4.833960e+001
2.154310e+003,4.734523e+001
2.156238e+003,4.697676e+001
2.158167e+003,4.831056e+001
2.160095e+003,5.002536e+001
2.162024e+003,5.108452e+001
2.163952e+003,5.164387e+001
2.165881e+003,5.166333e+001
2.167809e+003,5.136000e+001
2.169738e+003,5.214143e+001
2.171666e+003,5.402004e+001
2.173594e+003,5.572680e+001
2.175523e+003,5.744891e+001
2.177451e+003,5.700267e+001
2.179380e+003,5.267848e+001
2.181308e+003,5.007669e+001
2.183237e+003,5.246522e+001
2.185165e+003,5.456321e+001
2.187094e+003,5.395275e+001
2.189022e+003,5.247597e+001
2.190951e+003,5.021984e+001
2.192879e+003,4.880914e+001
2.194808e+003,5.143962e+001
2.196736e+003,5.627977e+001
2.198665e+003,5.806730e+001
2.200593e+003,5.687791e+001
2.202521e+003,5.633349e+001
2.204450e+003,5.652316e+001
2.206378e+003,5.610713e+001
2.208307e+003,5.475064e+001
2.210235e+003,5.395404e+001
2.212164e+003,5.428505e+001
2.214092e+003,5.461716e+001
2.216021e+003,5.469158e+001
2.217949e+003,5.454193e+001
2.219878e+003,5.395951e+001
2.221806e+003,5.338545e+001
2.223735e+003,5.328662e+001
2.225663e+003,5.328117e+001
2.227592e+003,5.254736e+001
2.229520e+003,5.158185e+001
2.231448e+003,5.194817e+001
2.233377e+003,5.349898e+001
2.235305e+003,5.505796e+001
2.237234e+003,5.666443e+001
2.239162e+003,5.599380e+001
2.241091e+003,5.216076e+001
2.243019e+003,5.017921e+001
2.244948e+003,5.186330e+001
2.246876e+003,5.329229e+001
2.248805e+003,5.239389e+001
2.250733e+003,5.246067e+001
2.252662e+003,5.646678e+001
2.254590e+003,5.968561e+001
2.256519e+003,5.917714e+001
2.258447e+003,5.645831e+001
2.260375e+003,5.138001e+001
2.262304e+003,4.615700e+001
2.264232e+003,4.502371e+001
2.266161e+003,4.678543e+001
2.268089e+003,4.795953e+001
2.270018e+003,4.854867e+001
2.271946e+003,4.884556e+001
2.273875e+003,4.862286e+001
2.275803e+003,5.052063e+001
2.277732e+003,5.673270e+001
2.279660e+003,6.043396e+001
2.281589e+003,6.011113e+001
2.283517e+003,5.889293e+001
2.285446e+003,5.516060e+001
2.287374e+003,5.362988e+001
2.289302e+003,5.842801e+001
2.291231e+003,6.253688e+001
2.293159e+003,6.172781e+001
2.295088e+003,5.903841e+001
2.297016e+003,5.519178e+001
2.298945e+003,5.244600e+001
2.300873e+003,5.559503e+001
2.302802e+003,6.166753e+001
2.304730e+003,6.303704e+001
2.306659e+003,6.027217e+001
2.308587e+003,5.754684e+001
2.310516e+003,5.454501e+001
2.312444e+003,5.478453e+001
2.314373e+003,5.912254e+001
2.316301e+003,6.166308e+001
2.318229e+003,6.182125e+001
2.320158e+003,6.057352e+001
2.322086e+003,5.756434e+001
2.324015e+003,5.462676e+001
2.325943e+003,5.058825e+001
2.327872e+003,4.926397e+001
2.329800e+003,5.349822e+001
2.331729e+003,5.907287e+001
2.333657e+003,6.631663e+001
2.335586e+003,7.085606e+001
2.337514e+003,6.594321e+001
2.339443e+003,5.856823e+001
2.341371e+003,5.766025e+001
2.343300e+003,6.064355e+001
2.345228e+003,6.386929e+001
2.347156e+003,6.648135e+001
2.349085e+003,6.490155e+001
2.351013e+003,5.958505e+001
2.352942e+003,5.705777e+001
2.354870e+003,5.770153e+001
2.356799e+003,5.888012e+001
2.358727e+003,6.094046e+001
2.360656e+003,6.264883e+001
2.362584e+003,6.427795e+001
2.364513e+003,6.433936e+001
2.366441e+003,6.131313e+001
2.368370e+003,6.027909e+001
2.370298e+003,6.483509e+001
2.372227e+003,6.744957e+001
2.374155e+003,6.185964e+001
2.376083e+003,5.784784e+001
2.378012e+003,6.370284e+001
2.379940e+003,6.905476e+001
2.381869e+003,6.415203e+001
2.383797e+003,5.728197e+001
2.385726e+003,5.680371e+001
2.387654e+003,5.954250e+001
2.389583e+003,6.197363e+001
2.391511e+003,6.378362e+001
2.393440e+003,6.349907e+001
2.395368e+003,6.214195e+001
2.397297e+003,6.399512e+001
2.399225e+003,6.865542e+001
2.401154e+003,7.027476e+001
2.403082e+003,6.820270e+001
2.405010e+003,6.865221e+001
2.406939e+003,7.282987e+001
2.408867e+003,7.284238e+001
2.410796e+003,6.709393e+001
2.412724e+003,6.329372e+001
2.414653e+003,6.275468e+001
2.416581e+003,6.366225e+001
2.418510e+003,6.675144e+001
2.420438e+003,6.890742e+001
2.422367e+003,6.936055e+001
2.424295e+003,6.853706e+001
2.426224e+003,6.477139e+001
2.428152e+003,6.223263e+001
2.430081e+003,6.406726e+001
2.432009e+003,6.620574e+001
2.433938e+003,6.544361e+001
2.435866e+003,6.509560e+001
2.437794e+003,6.943506e+001
2.439723e+003,7.405204e+001
2.441651e+003,7.424446e+001
2.443580e+003,7.141232e+001
2.445508e+003,6.575092e+001
2.447437e+003,5.961491e+001
2.449365e+003,5.921171e+001
2.451294e+003,6.285361e+001
2.453222e+003,6.401474e+001
2.455151e+003,6.342679e+001
2.457079e+003,6.508881e+001
2.459008e+003,6.873750e+001
2.460936e+003,6.953928e+001
2.462865e+003,6.686994e+001
2.464793e+003,6.538892e+001
2.466721e+003,6.514427e+001
2.468650e+003,6.622109e+001
2.470578e+003,6.955511e+001
2.472507e+003,6.974207e+001
2.474435e+003,6.488416e+001
2.476364e+003,6.317113e+001
2.478292e+003,6.806148e+001
2.480221e+003,7.048276e+001
2.482149e+003,6.446819e+001
2.484078e+003,6.177391e+001
2.486006e+003,6.925987e+001
2.487935e+003,7.405923e+001
2.489863e+003,6.979130e+001
2.491792e+003,6.566290e+001
2.493720e+003,6.513520e+001
2.495648e+003,6.536389e+001
2.497577e+003,6.469558e+001
2.499505e+003,6.436987e+001
2.501434e+003,6.589501e+001
2.503362e+003,6.733607e+001
2.505291e+003,6.677020e+001
2.507219e+003,6.567113e+001
2.509148e+003,6.552062e+001
2.511076e+003,6.573201e+001
2.513005e+003,6.531249e+001
2.514933e+003,6.497034e+001
2.516862e+003,6.596906e+001
2.518790e+003,6.760804e+001
2.520719e+003,6.842763e+001
2.522647e+003,6.891219e+001
2.524575e+003,7.122378e+001
2.526504e+003,7.426717e+001
2.528432e+003,7.258703e+001
2.530361e+003,6.732453e+001
2.532289e+003,6.471625e+001
2.534218e+003,6.467758e+001
2.536146e+003,6.652053e+001
2.538075e+003,7.016689e+001
2.540003e+003,7.364689e+001
2.541932e+003,7.726714e+001
2.543860e+003,7.742513e+001
2.545789e+003,7.332961e+001
2.547717e+003,7.141441e+001
2.549646e+003,7.219047e+001
2.551574e+003,7.144111e+001
2.553502e+003,6.833431e+001
2.555431e+003,6.686533e+001
2.557359e+003,6.852082e+001
2.559288e+003,6.899837e+001
2.561216e+003,6.599312e+001
2.563145e+003,6.539490e+001
2.565073e+003,6.710957e+001
2.567002e+003,7.305969e+001
2.568930e+003,8.645531e+001
2.570859e+003,9.495282e+001
2.572787e+003,9.371645e+001
2.574716e+003,9.098756e+001
2.576644e+003,8.761065e+001
2.578573e+003,8.529107e+001
2.580501e+003,8.549097e+001
2.582429e+003,8.509718e+001
2.584358e+003,8.275149e+001
2.586287e+003,8.081042e+001
2.588215e+003,8.192825e+001
2.590144e+003,8.066250e+001
2.592072e+003,7.121394e+001
2.594000e+003,6.357064e+001
2.595929e+003,6.199955e+001
2.597857e+003,6.435727e+001
2.599786e+003,7.358912e+001
2.601714e+003,8.096044e+001
2.603643e+003,8.087198e+001
2.605571e+003,7.859108e+001
2.607500e+003,7.628688e+001
2.609428e+003,7.477586e+001
2.611357e+003,7.475646e+001
2.613285e+003,7.570809e+001
2.615214e+003,7.794754e+001
2.617142e+003,8.014798e+001
2.619071e+003,8.208249e+001
2.620999e+003,8.238482e+001
2.622927e+003,7.941134e+001
2.624856e+003,7.468542e+001
2.626784e+003,6.687318e+001
2.628713e+003,6.105507e+001
2.630641e+003,6.619274e+001
2.632570e+003,7.358879e+001
2.634498e+003,7.169385e+001
2.636427e+003,6.665685e+001
2.638355e+003,6.515573e+001
2.640284e+003,6.589716e+001
2.642212e+003,6.784453e+001
2.644141e+003,7.044534e+001
2.646069e+003,7.400202e+001
2.647998e+003,7.677328e+001
2.649926e+003,7.349574e+001
2.651854e+003,6.921549e+001
2.653783e+003,7.482271e+001
2.655711e+003,8.343419e+001
2.657640e+003,8.341824e+001
2.659568e+003,7.905035e+001
2.661497e+003,7.757667e+001
2.663425e+003,7.810830e+001
2.665354e+003,8.003001e+001
2.667282e+003,8.188579e+001
2.669211e+003,7.925549e+001
2.671139e+003,7.500953e+001
2.673068e+003,7.476899e+001
2.674996e+003,7.717342e+001
2.676925e+003,8.050231e+001
2.678853e+003,8.350303e+001
2.680781e+003,8.245095e+001
2.682710e+003,7.909303e+001
2.684638e+003,7.758524e+001
2.686567e+003,7.710250e+001
2.688495e+003,7.536600e+001
2.690424e+003,7.345724e+001
2.692352e+003,7.459973e+001
2.694281e+003,7.735728e+001
2.696209e+003,7.789455e+001
2.698138e+003,7.710629e+001
2.700066e+003,7.685420e+001
2.701995e+003,7.726839e+001
2.703923e+003,7.892028e+001
2.705852e+003,8.122831e+001
2.707780e+003,8.327540e+001
2.709708e+003,8.463477e+001
2.711637e+003,8.366037e+001
2.713565e+003,8.153790e+001
2.715494e+003,8.049823e+001
2.717422e+003,8.087635e+001
2.719351e+003,8.487421e+001
2.721279e+003,8.982710e+001
2.723208e+003,9.009061e+001
2.725136e+003,8.685423e+001
2.727065e+003,8.042081e+001
2.728993e+003,7.368951e+001
2.730922e+003,7.305041e+001
2.732850e+003,7.588000e+001
2.734779e+003,7.965722e+001
2.736707e+003,8.229928e+001
2.738635e+003,7.745335e+001
2.740564e+003,7.062987e+001
2.742492e+003,7.260509e+001
2.744421e+003,7.853056e+001
2.746349e+003,8.286554e+001
2.748278e+003,8.462177e+001
2.750206e+003,8.010516e+001
2.752135e+003,7.397636e+001
2.754063e+003,7.307040e+001
2.755992e+003,7.464542e+001
2.757920e+003,7.608178e+001
2.759849e+003,7.685664e+001
2.761777e+003,7.545207e+001
2.763706e+003,7.412626e+001
2.765634e+003,7.680145e+001
2.767563e+003,7.949670e+001
2.769491e+003,7.585441e+001
2.771419e+003,7.233990e+001
2.773348e+003,7.663678e+001
2.775276e+003,8.172854e+001
2.777205e+003,8.182255e+001
2.779133e+003,7.952379e+001
2.781062e+003,7.466146e+001
2.782990e+003,7.127337e+001
2.784919e+003,7.475505e+001
2.786847e+003,7.786087e+001
2.788776e+003,7.484552e+001
2.790704e+003,7.160683e+001
2.792633e+003,7.198302e+001
2.794561e+003,7.311735e+001
2.796490e+003,7.309155e+001
2.798418e+003,7.402289e+001
2.800346e+003,7.846925e+001
2.802275e+003,8.111427e+001
2.804203e+003,7.722600e+001
2.806132e+003,7.432793e+001
2.808060e+003,7.692637e+001
2.809989e+003,7.835465e+001
2.811917e+003,7.417091e+001
2.813846e+003,7.438152e+001
2.815774e+003,8.568542e+001
2.817703e+003,9.264934e+001
2.819631e+003,8.621953e+001
2.821560e+003,8.272106e+001
2.823488e+003,8.687914e+001
2.825417e+003,8.881084e+001
2.827345e+003,8.578348e+001
2.829273e+003,8.659465e+001
2.831202e+003,9.442130e+001
2.833130e+003,1.013899e+002
2.835059e+003,1.069374e+002
2.836987e+003,1.101125e+002
2.838916e+003,1.104231e+002
2.840844e+003,1.110403e+002
2.842773e+003,1.120842e+002
2.844701e+003,1.158942e+002
2.846630e+003,1.233621e+002
2.848558e+003,1.285801e+002
2.850487e+003,1.314546e+002
2.852415e+003,1.362046e+002
2.854344e+003,1.422058e+002
2.856272e+003,1.413684e+002
2.858200e+003,1.347847e+002
2.860129e+003,1.348615e+002
2.862057e+003,1.395789e+002
2.863986e+003,1.361180e+002
2.865914e+003,1.275795e+002
2.867843e+003,1.248464e+002
2.869771e+003,1.248896e+002
2.871700e+003,1.202371e+002
2.873628e+003,1.135496e+002
2.875557e+003,1.092860e+002
2.877485e+003,1.070771e+002
2.879414e+003,1.070475e+002
2.881342e+003,1.080389e+002
2.883271e+003,1.077126e+002
2.885199e+003,1.090186e+002
2.887127e+003,1.166632e+002
2.889056e+003,1.251228e+002
2.890984e+003,1.299137e+002
2.892913e+003,1.338764e+002
2.894841e+003,1.362363e+002
2.896770e+003,1.419443e+002
2.898698e+003,1.541806e+002
2.900627e+003,1.697806e+002
2.902555e+003,1.903834e+002
2.904484e+003,2.072659e+002
2.906412e+003,2.103515e+002
2.908341e+003,2.274642e+002
2.910269e+003,2.730598e+002
2.912198e+003,3.215368e+002
2.914126e+003,3.674768e+002
2.916054e+003,4.285773e+002
2.917983e+003,5.127832e+002
2.919911e+003,5.732870e+002
2.921840e+003,6.069614e+002
2.923768e+003,5.936024e+002
2.925697e+003,5.278690e+002
2.927625e+003,4.669788e+002
2.929554e+003,4.135858e+002
2.931482e+003,3.885824e+002
2.933411e+003,3.882330e+002
2.935339e+003,3.825437e+002
2.937268e+003,3.728861e+002
2.939196e+003,3.635280e+002
2.941125e+003,3.564060e+002
2.943053e+003,3.607979e+002
2.944981e+003,3.666283e+002
2.946910e+003,3.568401e+002
2.948838e+003,3.390621e+002
2.950767e+003,3.151098e+002
2.952695e+003,2.982687e+002
2.954624e+003,2.971322e+002
2.956552e+003,3.106430e+002
2.958481e+003,3.531112e+002
2.960409e+003,3.877713e+002
2.962338e+003,4.002426e+002
2.964266e+003,3.889369e+002
2.966195e+003,3.410592e+002
2.968123e+003,2.968981e+002
2.970052e+003,2.630139e+002
2.971980e+003,2.499041e+002
2.973908e+003,2.663137e+002
2.975837e+003,2.745607e+002
2.977765e+003,2.699260e+002
2.979694e+003,2.589419e+002
2.981622e+003,2.418171e+002
2.983551e+003,2.175679e+002
2.985479e+003,1.860890e+002
2.987408e+003,1.689707e+002
2.989336e+003,1.647824e+002
2.991265e+003,1.648513e+002
2.993193e+003,1.679780e+002
2.995122e+003,1.711081e+002
2.997050e+003,1.751175e+002
2.998979e+003,1.835913e+002
3.000907e+003,1.923707e+002
3.002835e+003,1.967277e+002
3.004764e+003,1.980367e+002
3.006692e+003,1.972160e+002
3.008621e+003,1.942291e+002
3.010549e+003,1.856612e+002
3.012478e+003,1.810061e+002
3.014406e+003,1.848608e+002
3.016335e+003,1.940701e+002
3.018263e+003,2.075076e+002
3.020192e+003,2.280649e+002
3.022120e+003,2.595240e+002
3.024049e+003,2.823860e+002
3.025977e+003,2.887093e+002
3.027906e+003,3.054436e+002
3.029834e+003,3.354258e+002
3.031762e+003,3.621258e+002
3.033691e+003,3.849229e+002
3.035619e+003,4.021993e+002
3.037548e+003,4.128510e+002
3.039476e+003,4.028960e+002
3.041405e+003,3.871834e+002
3.043333e+003,3.871870e+002
3.045262e+003,4.234436e+002
3.047190e+003,5.058825e+002
3.049119e+003,6.563703e+002
3.051047e+003,9.696258e+002
3.052976e+003,1.255065e+003
3.054904e+003,1.405447e+003
3.056833e+003,1.471718e+003
3.058761e+003,1.437380e+003
3.060689e+003,1.399700e+003
3.062618e+003,1.417474e+003
3.064546e+003,1.352558e+003
3.066475e+003,1.180255e+003
3.068403e+003,9.763396e+002
3.070332e+003,7.341421e+002
3.072260e+003,5.480242e+002
3.074189e+003,4.177229e+002
3.076117e+003,3.259735e+002
3.078046e+003,2.696067e+002
3.079974e+003,2.407148e+002
3.081903e+003,2.281817e+002
3.083831e+003,2.092883e+002
3.085760e+003,1.899326e+002
3.087688e+003,1.791875e+002
3.089616e+003,1.704872e+002
3.091545e+003,1.569752e+002
3.093473e+003,1.458776e+002
3.095402e+003,1.422980e+002
3.097330e+003,1.406544e+002
3.099259e+003,1.400434e+002
3.101187e+003,1.392076e+002
3.103116e+003,1.407136e+002
3.105044e+003,1.336033e+002
3.106973e+003,1.161629e+002
3.108901e+003,1.092042e+002
3.110830e+003,1.133354e+002
3.112758e+003,1.139140e+002
3.114687e+003,1.115394e+002
3.116615e+003,1.099885e+002
3.118543e+003,1.088266e+002
3.120472e+003,1.074559e+002
3.122400e+003,1.055756e+002
3.124329e+003,1.025250e+002
3.126257e+003,9.923297e+001
3.128186e+003,9.520528e+001
3.130114e+003,9.348334e+001
3.132043e+003,9.680580e+001
3.133971e+003,1.004757e+002
3.135900e+003,1.039142e+002
3.137828e+003,1.062634e+002
3.139757e+003,1.075346e+002
3.141685e+003,1.058710e+002
3.143614e+003,1.008444e+002
3.145542e+003,9.582084e+001
3.147470e+003,9.142839e+001
3.149399e+003,9.369973e+001
3.151327e+003,9.859003e+001
3.153256e+003,9.654630e+001
3.155184e+003,9.353378e+001
3.157113e+003,9.545103e+001
3.159041e+003,1.023577e+002
3.160970e+003,1.204721e+002
3.162898e+003,1.325401e+002
3.164827e+003,1.287469e+002
3.166755e+003,1.204422e+002
3.168684e+003,1.082089e+002
3.170612e+003,9.921033e+001
3.172541e+003,9.487965e+001
3.174469e+003,9.142744e+001
3.176397e+003,8.869798e+001
3.178326e+003,8.591401e+001
3.180254e+003,8.312864e+001
3.182183e+003,8.029939e+001
3.184111e+003,7.784679e+001
3.186040e+003,7.472211e+001
3.187968e+003,7.477955e+001
3.189897e+003,8.558446e+001
3.191825e+003,9.279050e+001
3.193754e+003,8.440546e+001
3.195682e+003,7.913049e+001
3.197611e+003,8.096275e+001
3.199539e+003,8.718742e+001
3.201468e+003,9.931702e+001
3.203396e+003,9.913147e+001
3.205324e+003,8.619482e+001
3.207253e+003,7.775407e+001
3.209181e+003,7.322767e+001
3.211110e+003,7.168276e+001
3.213038e+003,7.135971e+001
3.214967e+003,6.987772e+001
3.216895e+003,6.787109e+001
3.218824e+003,6.458508e+001
3.220752e+003,6.323405e+001
3.222681e+003,6.807817e+001
3.224609e+003,6.978369e+001
3.226538e+003,6.604817e+001
3.228466e+003,6.214940e+001
3.230395e+003,5.852363e+001
3.232323e+003,5.966916e+001
3.234251e+003,6.452502e+001
3.236180e+003,6.047479e+001
3.238108e+003,5.258488e+001
3.240037e+003,4.993720e+001
3.241965e+003,5.161953e+001
3.243894e+003,6.124292e+001
3.245822e+003,6.749911e+001
3.247751e+003,6.102132e+001
3.249679e+003,5.659608e+001
3.251608e+003,6.260658e+001
3.253536e+003,6.476590e+001
3.255465e+003,6.182618e+001
3.257393e+003,5.634063e+001
3.259322e+003,4.901377e+001
3.261250e+003,4.787107e+001
3.263178e+003,5.078621e+001
3.265107e+003,5.134703e+001
3.267035e+003,5.159091e+001
3.268964e+003,5.398814e+001
3.270892e+003,5.713759e+001
3.272821e+003,6.060030e+001
3.274749e+003,6.372927e+001
3.276678e+003,6.801118e+001
3.278606e+003,6.616310e+001
3.280535e+003,5.464276e+001
3.282463e+003,5.368087e+001
3.284392e+003,6.165481e+001
3.286320e+003,5.935701e+001
3.288249e+003,5.126450e+001
3.290177e+003,4.872382e+001
3.292105e+003,4.960939e+001
3.294034e+003,5.300892e+001
3.295962e+003,5.600188e+001
3.297891e+003,5.672163e+001
3.299819e+003,5.684324e+001
3.301748e+003,5.730682e+001
3.303676e+003,5.386147e+001
3.305605e+003,4.418264e+001
3.307533e+003,4.174786e+001
3.309462e+003,4.585357e+001
3.311390e+003,5.624480e+001
3.313319e+003,6.618805e+001
3.315247e+003,6.008613e+001
3.317176e+003,5.268236e+001
3.319104e+003,5.832581e+001
3.321032e+003,6.412189e+001
3.322961e+003,6.581931e+001
3.324889e+003,6.268183e+001
3.326818e+003,5.364960e+001
3.328746e+003,4.737752e+001
3.330675e+003,4.478013e+001
3.332603e+003,4.939301e+001
3.334532e+003,5.719529e+001
3.336460e+003,5.509837e+001
3.338389e+003,5.044141e+001
3.340317e+003,5.195541e+001
3.342246e+003,5.259772e+001
3.344174e+003,4.710223e+001
3.346103e+003,4.328922e+001
3.348031e+003,4.286213e+001
3.349959e+003,4.477567e+001
3.351888e+003,4.905676e+001
3.353816e+003,5.190337e+001
3.355745e+003,5.330017e+001
3.357673e+003,5.262681e+001
3.359602e+003,5.159880e+001
3.361530e+003,5.356291e+001
3.363459e+003,5.450268e+001
3.365387e+003,5.118016e+001
3.367316e+003,4.812099e+001
3.369244e+003,4.615268e+001
3.371173e+003,4.620792e+001
3.373101e+003,4.818199e+001
3.375030e+003,4.640042e+001
3.376958e+003,4.284140e+001
3.378886e+003,4.644055e+001
3.380815e+003,5.116184e+001
3.382743e+003,4.976988e+001
3.384672e+003,4.688756e+001
3.386600e+003,4.458942e+001
3.388529e+003,4.290863e+001
3.390457e+003,4.196068e+001
3.392386e+003,4.060783e+001
3.394314e+003,3.867302e+001
3.396243e+003,4.367457e+001
3.398171e+003,5.151239e+001
3.400100e+003,5.249484e+001
3.402028e+003,4.998742e+001
3.403957e+003,4.427975e+001
3.405885e+003,4.245081e+001
3.407813e+003,5.092578e+001
3.409742e+003,5.469029e+001
3.411670e+003,5.003251e+001
3.413599e+003,4.935239e+001
3.415527e+003,5.213194e+001
3.417456e+003,5.155346e+001
3.419384e+003,4.963268e+001
3.421313e+003,5.150238e+001
3.423241e+003,5.242982e+001
3.425170e+003,4.733823e+001
3.427098e+003,4.327231e+001
3.429027e+003,4.180343e+001
3.430955e+003,4.393180e+001
3.432884e+003,4.990181e+001
3.434812e+003,5.429046e+001
3.436740e+003,5.663181e+001
3.438669e+003,5.489262e+001
3.440597e+003,5.102765e+001
3.442526e+003,4.447192e+001
3.444454e+003,4.151297e+001
3.446383e+003,4.674788e+001
3.448311e+003,4.920346e+001
3.450240e+003,4.513425e+001
3.452168e+003,4.581832e+001
3.454097e+003,5.001059e+001
3.456025e+003,4.704115e+001
3.457954e+003,4.229137e+001
3.459882e+003,4.500015e+001
3.461811e+003,4.793058e+001
3.463739e+003,4.607572e+001
3.465667e+003,4.563298e+001
3.467596e+003,5.082794e+001
3.469524e+003,4.990232e+001
3.471453e+003,4.384481e+001
3.473381e+003,4.321825e+001
3.475310e+003,4.566660e+001
3.477238e+003,4.723545e+001
3.479167e+003,4.764896e+001
3.481095e+003,4.570800e+001
3.483024e+003,4.467624e+001
3.484952e+003,4.568917e+001
3.486881e+003,4.679828e+001
3.488809e+003,4.797018e+001
3.490738e+003,5.163768e+001
3.492666e+003,5.580065e+001
3.494594e+003,5.558889e+001
3.496523e+003,5.295330e+001
3.498451e+003,4.708586e+001
3.500380e+003,4.398867e+001
3.502308e+003,4.574136e+001
3.504237e+003,4.713005e+001
3.506165e+003,4.748526e+001
3.508094e+003,4.651223e+001
3.510022e+003,4.486976e+001
3.511951e+003,4.426881e+001
3.513879e+003,4.383797e+001
3.515808e+003,4.078805e+001
3.517736e+003,4.252649e+001
3.519665e+003,5.294185e+001
3.521593e+003,5.723545e+001
3.523521e+003,5.416608e+001
3.525450e+003,5.035553e+001
3.527378e+003,4.731020e+001
3.529307e+003,4.806070e+001
3.531235e+003,5.061409e+001
3.533164e+003,5.549622e+001
3.535092e+003,5.635522e+001
3.537021e+003,4.833163e+001
3.538949e+003,4.826999e+001
3.540878e+003,5.512265e+001
3.542806e+003,5.347121e+001
3.544735e+003,4.874885e+001
3.546663e+003,5.027077e+001
3.548592e+003,5.234844e+001
3.550520e+003,5.217968e+001
3.552448e+003,5.046766e+001
3.554377e+003,4.724374e+001
3.556305e+003,4.229950e+001
3.558234e+003,3.698535e+001
3.560162e+003,3.737035e+001
3.562091e+003,3.994998e+001
3.564019e+003,3.982769e+001
3.565948e+003,4.083029e+001
3.567876e+003,4.648481e+001
3.569805e+003,4.944942e+001
3.571733e+003,4.922265e+001
3.573662e+003,4.842052e+001
3.575590e+003,4.703809e+001
3.577519e+003,4.272081e+001
3.579447e+003,4.043187e+001
3.581376e+003,4.616124e+001
3.583304e+003,5.064401e+001
3.585233e+003,5.093266e+001
3.587161e+003,5.263149e+001
3.589090e+003,5.550312e+001
3.591018e+003,5.408649e+001
3.592947e+003,5.114808e+001
3.594875e+003,5.199889e+001
3.596803e+003,5.154588e+001
3.598732e+003,4.473383e+001
3.600660e+003,4.079682e+001
3.602589e+003,4.069769e+001
3.604517e+003,5.129171e+001
3.606446e+003,6.302122e+001
3.608374e+003,3.489204e+001
3.610303e+003,8.777045e+000
3.612231e+003,2.718504e+001
3.614160e+003,4.243738e+001
3.616088e+003,4.320916e+001
3.618017e+003,4.192382e+001
3.619945e+003,4.034633e+001
3.621874e+003,4.270570e+001
3.623802e+003,4.702051e+001
3.625730e+003,5.321949e+001
3.627659e+003,5.508305e+001
3.629587e+003,4.758303e+001
3.631516e+003,4.515369e+001
3.633444e+003,4.955899e+001
3.635373e+003,4.765109e+001
3.637301e+003,4.304841e+001
3.639230e+003,4.329681e+001
3.641158e+003,4.431300e+001
3.643087e+003,4.311718e+001
3.645015e+003,4.308400e+001
3.646944e+003,4.481607e+001
3.648872e+003,4.369333e+001
3.650801e+003,4.108092e+001
3.652729e+003,4.262885e+001
3.654657e+003,4.477193e+001
3.656586e+003,4.524382e+001
3.658514e+003,4.358855e+001
3.660443e+003,3.932964e+001
3.662371e+003,3.758392e+001
3.664300e+003,3.835446e+001
3.666228e+003,4.122003e+001
3.668157e+003,4.483059e+001
3.670085e+003,4.912799e+001
3.672014e+003,5.061643e+001
3.673942e+003,4.773827e+001
3.675871e+003,4.771970e+001
3.677799e+003,5.067382e+001
3.679728e+003,5.372871e+001
3.681656e+003,5.536983e+001
3.683584e+003,5.276642e+001
3.685513e+003,5.030846e+001
3.687441e+003,4.920990e+001
3.689370e+003,5.109959e+001
3.691298e+003,5.539867e+001
3.693227e+003,5.208140e+001
3.695155e+003,4.663263e+001
3.697084e+003,4.592505e+001
3.699012e+003,4.738108e+001
3.700941e+003,5.130533e+001
3.702869e+003,4.855632e+001
3.704798e+003,3.939017e+001
3.706726e+003,4.555928e+001
3.708655e+003,5.589734e+001
3.710583e+003,5.501633e+001
3.712511e+003,5.066745e+001
3.714440e+003,4.428839e+001
3.716368e+003,4.422149e+001
3.718297e+003,5.083529e+001
3.720225e+003,5.585189e+001
3.722154e+003,5.791018e+001
3.724082e+003,5.374691e+001
3.726011e+003,4.933649e+001
3.727939e+003,4.662792e+001
3.729868e+003,4.725626e+001
3.731796e+003,5.070170e+001
3.733725e+003,4.938538e+001
3.735653e+003,4.591269e+001
3.737582e+003,4.219962e+001
3.739510e+003,4.107572e+001
3.741438e+003,4.398724e+001
3.743367e+003,4.888383e+001
3.745295e+003,5.441270e+001
3.747224e+003,5.194942e+001
3.749152e+003,4.677662e+001
3.751081e+003,4.505589e+001
3.753009e+003,4.240451e+001
3.754938e+003,3.634175e+001
3.756866e+003,3.743700e+001
3.758795e+003,4.379106e+001
3.760723e+003,4.273982e+001
3.762652e+003,4.126936e+001
3.764580e+003,4.679165e+001
3.766509e+003,5.142512e+001
3.768437e+003,5.360153e+001
3.770365e+003,5.174890e+001
3.772294e+003,4.758505e+001
3.774222e+003,4.540101e+001
3.776151e+003,4.553746e+001
3.778079e+003,4.990577e+001
3.780008e+003,5.125632e+001
3.781936e+003,4.848321e+001
3.783865e+003,5.025842e+001
3.785793e+003,5.320061e+001
3.787722e+003,4.856228e+001
3.789650e+003,4.456121e+001
3.791579e+003,4.608718e+001
3.793507e+003,4.692656e+001
3.795436e+003,4.651651e+001
3.797364e+003,4.432014e+001
3.799292e+003,4.294102e+001
3.801221e+003,4.784198e+001
3.803149e+003,5.120589e+001
3.805078e+003,4.971008e+001
3.807006e+003,5.019895e+001
3.808935e+003,5.135838e+001
3.810863e+003,4.345280e+001
3.812792e+003,3.687825e+001
3.814720e+003,4.265455e+001
3.816649e+003,4.796743e+001
3.818577e+003,5.017544e+001
3.820506e+003,5.044390e+001
3.822434e+003,4.871853e+001
3.824363e+003,4.226927e+001
3.826291e+003,4.001434e+001
3.828219e+003,4.880201e+001
3.830148e+003,4.947481e+001
3.832076e+003,4.120293e+001
3.834005e+003,4.229514e+001
3.835933e+003,4.762078e+001
3.837862e+003,5.444593e+001
3.839790e+003,5.515752e+001
3.841719e+003,4.743446e+001
3.843647e+003,4.617997e+001
3.845576e+003,4.961890e+001
3.847504e+003,5.179950e+001
3.849433e+003,5.226510e+001
3.851361e+003,4.932099e+001
3.853290e+003,4.804324e+001
3.855218e+003,4.860492e+001
3.857146e+003,4.748307e+001
3.859075e+003,4.563179e+001
3.861003e+003,4.468403e+001
3.862932e+003,4.281024e+001
3.864860e+003,3.808613e+001
3.866789e+003,4.003009e+001
3.868717e+003,4.609913e+001
3.870646e+003,4.881601e+001
3.872574e+003,4.865020e+001
3.874503e+003,4.417437e+001
3.876431e+003,4.499463e+001
3.878360e+003,5.143927e+001
3.880288e+003,4.986075e+001
3.882217e+003,4.536433e+001
3.884145e+003,4.307624e+001
3.886073e+003,4.303268e+001
3.888002e+003,4.590194e+001
3.889930e+003,4.553244e+001
3.891859e+003,4.427997e+001
3.893787e+003,4.961127e+001
3.895716e+003,5.491293e+001
3.897644e+003,5.770190e+001
3.899573e+003,5.337466e+001
3.901501e+003,4.302203e+001
3.903430e+003,3.730471e+001
3.905358e+003,3.778452e+001
3.907287e+003,5.166696e+001
3.909215e+003,5.720472e+001
3.911144e+003,5.115058e+001
3.913072e+003,5.239186e+001
3.915000e+003,5.588454e+001
3.916929e+003,5.011916e+001
3.918857e+003,4.583189e+001
3.920786e+003,4.874499e+001
3.922714e+003,4.658439e+001
3.924643e+003,4.185041e+001
3.926571e+003,4.524824e+001
3.928500e+003,4.810486e+001
3.930428e+003,4.353441e+001
3.932357e+003,4.413712e+001
3.934285e+003,5.024808e+001
3.936214e+003,5.696467e+001
3.938142e+003,5.973203e+001
3.940071e+003,5.022215e+001
3.941999e+003,4.415027e+001
3.943927e+003,4.514811e+001
3.945856e+003,4.605098e+001
3.947784e+003,4.600961e+001
3.949713e+003,4.203990e+001
3.951641e+003,4.140849e+001
3.953570e+003,4.645632e+001
3.955498e+003,4.728304e+001
3.957427e+003,4.562344e+001
3.959355e+003,4.672828e+001
3.961284e+003,4.913437e+001
3.963212e+003,5.328775e+001
3.965141e+003,5.378123e+001
3.967069e+003,5.181975e+001
3.968998e+003,5.406496e+001
3.970926e+003,5.693569e+001
3.972854e+003,5.842627e+001
3.974783e+003,5.807725e+001
3.976711e+003,5.618295e+001
3.978640e+003,5.525466e+001
3.980568e+003,5.315796e+001
3.982497e+003,4.615579e+001
3.984425e+003,4.284233e+001
3.986354e+003,4.497152e+001
3.988282e+003,4.738431e+001
3.990211e+003,5.013740e+001
3.992139e+003,5.669312e+001
3.994068e+003,5.367070e+001
3.995996e+003,3.819434e+001
3.997925e+003,4.067257e+001
3.999853e+003,5.013438e+001
4.001781e+003,4.634748e+001
4.003710e+003,4.312395e+001
4.005638e+003,4.473959e+001
4.007567e+003,4.688844e+001
4.009495e+003,4.822561e+001
4.011424e+003,4.432243e+001
4.013352e+003,4.237342e+001
4.015281e+003,4.686410e+001
4.017209e+003,5.093805e+001
4.019138e+003,5.322290e+001
4.021066e+003,4.982590e+001
4.022995e+003,4.595558e+001
4.024923e+003,4.389529e+001
4.026852e+003,4.150363e+001
4.028780e+003,4.018282e+001
4.030708e+003,4.895491e+001
4.032637e+003,5.436977e+001
4.034565e+003,4.740716e+001
4.036494e+003,4.528326e+001
4.038422e+003,4.704796e+001
4.040351e+003,4.070048e+001
4.042279e+003,3.610722e+001
4.044208e+003,4.230594e+001
4.046136e+003,4.352358e+001
4.048065e+003,4.103201e+001
4.049993e+003,4.575280e+001
4.051922e+003,4.795127e+001
4.053850e+003,3.964446e+001
4.055779e+003,3.981838e+001
4.057707e+003,4.698677e+001
4.059635e+003,4.365993e+001
4.061564e+003,3.904089e+001
4.063492e+003,3.891115e+001
4.065421e+003,4.007114e+001
4.067349e+003,4.194923e+001
4.069278e+003,4.466838e+001
4.071206e+003,4.588320e+001
4.073135e+003,4.174128e+001
4.075063e+003,4.195995e+001
4.076992e+003,4.611334e+001
4.078920e+003,5.037178e+001
4.080849e+003,5.129902e+001
4.082777e+003,4.528257e+001
4.084706e+003,4.124025e+001
4.086634e+003,3.950134e+001
4.088563e+003,3.665716e+001
4.090491e+003,3.862821e+001
4.092419e+003,5.142163e+001
4.094348e+003,4.887270e+001
4.096276e+003,3.541976e+001
4.098205e+003,3.763254e+001
4.100133e+003,4.186928e+001
4.102062e+003,4.118977e+001
4.103990e+003,3.835136e+001
4.105919e+003,3.495982e+001
4.107847e+003,3.526010e+001
4.109776e+003,3.747618e+001
4.111704e+003,4.122690e+001
4.113633e+003,4.688153e+001
4.115561e+003,5.131510e+001
4.117490e+003,4.534199e+001
4.119418e+003,4.000835e+001
4.121347e+003,3.978263e+001
4.123275e+003,3.824527e+001
4.125204e+003,3.707734e+001
4.127132e+003,4.110096e+001
4.129061e+003,4.501275e+001
4.130989e+003,4.735453e+001
4.132917e+003,4.370571e+001
4.134846e+003,3.904604e+001
4.136774e+003,4.208161e+001
4.138703e+003,4.449864e+001
4.140631e+003,4.430322e+001
4.142560e+003,3.728667e+001
4.144488e+003,3.200292e+001
4.146417e+003,4.157047e+001
4.148345e+003,4.890971e+001
4.150273e+003,5.092709e+001
4.152202e+003,4.162703e+001
4.154130e+003,3.456083e+001
4.156059e+003,4.969123e+001
4.157987e+003,4.650367e+001
4.159916e+003,2.767986e+001
4.161844e+003,3.627417e+001
4.163773e+003,4.729877e+001
4.165701e+003,4.249557e+001
4.167630e+003,4.055674e+001
4.169558e+003,4.114865e+001
4.171487e+003,3.967496e+001
4.173415e+003,3.862969e+001
4.175344e+003,3.903456e+001
4.177272e+003,4.061619e+001
4.179201e+003,4.223893e+001
4.181129e+003,4.176071e+001
4.183058e+003,4.037497e+001
4.184986e+003,3.855735e+001
4.186915e+003,4.315582e+001
4.188843e+003,4.886048e+001
4.190771e+003,4.993747e+001
4.192700e+003,4.634944e+001
4.194628e+003,3.917498e+001
4.196557e+003,4.174665e+001
4.198485e+003,4.453030e+001
4.200414e+003,3.945457e+001
4.202342e+003,3.746221e+001
4.204271e+003,3.865500e+001
4.206199e+003,3.887106e+001
4.208127e+003,3.874691e+001
4.210056e+003,3.821894e+001
4.211984e+003,3.958141e+001
4.213913e+003,4.248602e+001
4.215841e+003,4.812049e+001
4.217770e+003,5.009829e+001
4.219698e+003,4.619535e+001
4.221627e+003,4.165535e+001
4.223555e+003,3.864796e+001
4.225484e+003,4.087449e+001
4.227412e+003,4.242227e+001
4.229341e+003,4.276428e+001
4.231269e+003,4.502831e+001
4.233198e+003,4.496336e+001
4.235126e+003,3.588238e+001
4.237055e+003,3.687550e+001
4.238983e+003,4.447820e+001
4.240912e+003,5.105836e+001
4.242840e+003,5.203920e+001
4.244769e+003,4.494246e+001
4.246697e+003,4.477512e+001
4.248625e+003,4.554182e+001
4.250554e+003,4.130860e+001
