1.159199e+002,2.361723e+002
1.178484e+002,2.506167e+002
1.197769e+002,2.533978e+002
1.217053e+002,2.435041e+002
1.236338e+002,2.337823e+002
1.255623e+002,2.235366e+002
1.274907e+002,2.140228e+002
1.294192e+002,2.061365e+002
1.313477e+002,2.007832e+002
1.332761e+002,1.959673e+002
1.352046e+002,1.918752e+002
1.371331e+002,1.888746e+002
1.390615e+002,1.831551e+002
1.409900e+002,1.683399e+002
1.429185e+002,1.505202e+002
1.448469e+002,1.419281e+002
1.467754e+002,1.484318e+002
1.487039e+002,1.584475e+002
1.506323e+002,1.687089e+002
1.525608e+002,1.799726e+002
1.544893e+002,1.872009e+002
1.564177e+002,1.896311e+002
1.583462e+002,1.880944e+002
1.602747e+002,1.847363e+002
1.622031e+002,1.793522e+002
1.641316e+002,1.733877e+002
1.660601e+002,1.679927e+002
1.679885e+002,1.642666e+002
1.699170e+002,1.588350e+002
1.718455e+002,1.490788e+002
1.737739e+002,1.351680e+002
1.757024e+002,1.267477e+002
1.776309e+002,1.268293e+002
1.795593e+002,1.304066e+002
1.814878e+002,1.331801e+002
1.834163e+002,1.359604e+002
1.853447e+002,1.371322e+002
1.872732e+002,1.365717e+002
1.892017e+002,1.344611e+002
1.911301e+002,1.302497e+002
1.930586e+002,1.218210e+002
1.949871e+002,1.119461e+002
1.969155e+002,1.041518e+002
1.988440e+002,9.879599e+001
2.007725e+002,9.468742e+001
2.027009e+002,9.100411e+001
2.046294e+002,8.725129e+001
2.065579e+002,8.660717e+001
2.084864e+002,9.136485e+001
2.104148e+002,9.916779e+001
2.123433e+002,1.046812e+002
2.142718e+002,1.058214e+002
2.162002e+002,1.071369e+002
2.181287e+002,1.109834e+002
2.200572e+002,1.192694e+002
2.219856e+002,1.248465e+002
2.239141e+002,1.265561e+002
2.258426e+002,1.251007e+002
2.277710e+002,1.228530e+002
2.296995e+002,1.183200e+002
2.316280e+002,1.148128e+002
2.335564e+002,1.137877e+002
2.354849e+002,1.175778e+002
2.374134e+002,1.209919e+002
2.393418e+002,1.241261e+002
2.412703e+002,1.268650e+002
2.431988e+002,1.290233e+002
2.451272e+002,1.307905e+002
2.470557e+002,1.315990e+002
2.489842e+002,1.311494e+002
2.509126e+002,1.295894e+002
2.528411e+002,1.262793e+002
2.547696e+002,1.188227e+002
2.566980e+002,1.092032e+002
2.586265e+002,1.027975e+002
2.605550e+002,1.032457e+002
2.624834e+002,1.046439e+002
2.644119e+002,1.035453e+002
2.663404e+002,9.901157e+001
2.682688e+002,9.601270e+001
2.701973e+002,9.756387e+001
2.721258e+002,1.022299e+002
2.740542e+002,1.033380e+002
2.759827e+002,9.802921e+001
2.779112e+002,9.151397e+001
2.798396e+002,8.660928e+001
2.817681e+002,8.349908e+001
2.836966e+002,8.036241e+001
2.856250e+002,7.646870e+001
2.875535e+002,7.213931e+001
2.894820e+002,6.878278e+001
2.914104e+002,6.673517e+001
2.933389e+002,6.528029e+001
2.952674e+002,6.394231e+001
2.971958e+002,6.246549e+001
2.991243e+002,6.217870e+001
3.010528e+002,6.363572e+001
3.029813e+002,6.639697e+001
3.049097e+002,6.917445e+001
3.068382e+002,7.354469e+001
3.087667e+002,7.614377e+001
3.106951e+002,7.510893e+001
3.126236e+002,6.898633e+001
3.145521e+002,6.377210e+001
3.164805e+002,5.931644e+001
3.184090e+002,5.630348e+001
3.203375e+002,5.583499e+001
3.222659e+002,5.873084e+001
3.241944e+002,6.304673e+001
3.261229e+002,6.858405e+001
3.280513e+002,7.733018e+001
3.299798e+002,8.171256e+001
3.319083e+002,7.824615e+001
3.338367e+002,7.160931e+001
3.357652e+002,6.826447e+001
3.376937e+002,6.996656e+001
3.396221e+002,7.213261e+001
3.415506e+002,7.296343e+001
3.434791e+002,7.194136e+001
3.454075e+002,7.230437e+001
3.473360e+002,7.505176e+001
3.492645e+002,7.864510e+001
3.511929e+002,8.189498e+001
3.531214e+002,8.526279e+001
3.550499e+002,8.728812e+001
3.569783e+002,8.718512e+001
3.589068e+002,8.497710e+001
3.608353e+002,8.336975e+001
3.627637e+002,8.007714e+001
3.646922e+002,7.930850e+001
3.666207e+002,8.393815e+001
3.685491e+002,9.847530e+001
3.704776e+002,1.087905e+002
3.724061e+002,1.112218e+002
3.743345e+002,1.075204e+002
3.762630e+002,1.047869e+002
3.781915e+002,1.034528e+002
3.801199e+002,1.025967e+002
3.820484e+002,1.021741e+002
3.839769e+002,1.033792e+002
3.859053e+002,1.015961e+002
3.878338e+002,9.405136e+001
3.897623e+002,8.406081e+001
3.916907e+002,7.669913e+001
3.936192e+002,7.180251e+001
3.955477e+002,6.990660e+001
3.974761e+002,7.165854e+001
3.994046e+002,7.803195e+001
4.013331e+002,8.259016e+001
4.032615e+002,8.377809e+001
4.051900e+002,8.429475e+001
4.071185e+002,8.691313e+001
4.090469e+002,9.323856e+001
4.109754e+002,9.704846e+001
4.129039e+002,9.533565e+001
4.148323e+002,8.927754e+001
4.167608e+002,8.642219e+001
4.186893e+002,8.971828e+001
4.206177e+002,9.327422e+001
4.225462e+002,9.417191e+001
4.244747e+002,9.204198e+001
4.264032e+002,9.000465e+001
4.283316e+002,8.803590e+001
4.302601e+002,8.654045e+001
4.321886e+002,8.648436e+001
4.341170e+002,8.899780e+001
4.360455e+002,9.102274e+001
4.379740e+002,9.109711e+001
4.399024e+002,8.945803e+001
4.418309e+002,8.867294e+001
4.437594e+002,8.896054e+001
4.456878e+002,9.007327e+001
4.476163e+002,9.194576e+001
4.495448e+002,9.446042e+001
4.514732e+002,9.779159e+001
4.534017e+002,1.050580e+002
4.553302e+002,1.132628e+002
4.572586e+002,1.149839e+002
4.591871e+002,9.993937e+001
4.611156e+002,8.807322e+001
4.630440e+002,8.821037e+001
4.649725e+002,9.998695e+001
4.669010e+002,1.076717e+002
4.688294e+002,1.054470e+002
4.707579e+002,1.004707e+002
4.726864e+002,9.826801e+001
4.746148e+002,9.860316e+001
4.765433e+002,1.025174e+002
4.784718e+002,1.125019e+002
4.804002e+002,1.263706e+002
4.823287e+002,1.382351e+002
4.842572e+002,1.479061e+002
4.861856e+002,1.552701e+002
4.881141e+002,1.605133e+002
4.900426e+002,1.635300e+002
4.919710e+002,1.643228e+002
4.938995e+002,1.627831e+002
4.958280e+002,1.592268e+002
4.977564e+002,1.536305e+002
4.996849e+002,1.449897e+002
5.016134e+002,1.373854e+002
5.035418e+002,1.307463e+002
5.054703e+002,1.255215e+002
5.073988e+002,1.240487e+002
5.093272e+002,1.280740e+002
5.112557e+002,1.334956e+002
5.131842e+002,1.365783e+002
5.151127e+002,1.373917e+002
5.170411e+002,1.466785e+002
5.189696e+002,1.694748e+002
5.208981e+002,1.993327e+002
5.228265e+002,2.341145e+002
5.247550e+002,2.845936e+002
5.266835e+002,3.188547e+002
5.286119e+002,3.285145e+002
5.305404e+002,3.188039e+002
5.324689e+002,2.980803e+002
5.343973e+002,2.538404e+002
5.363258e+002,2.128203e+002
5.382543e+002,1.830624e+002
5.401827e+002,1.657333e+002
5.421112e+002,1.507745e+002
5.440397e+002,1.383116e+002
5.459681e+002,1.283315e+002
5.478966e+002,1.209138e+002
5.498251e+002,1.169056e+002
5.517535e+002,1.128808e+002
5.536820e+002,1.078632e+002
5.556105e+002,1.028139e+002
5.575389e+002,9.923306e+001
5.594674e+002,9.700616e+001
5.613959e+002,9.616183e+001
5.633243e+002,9.809689e+001
5.652528e+002,1.018997e+002
5.671813e+002,1.033425e+002
5.691097e+002,9.903879e+001
5.710382e+002,9.509554e+001
5.729667e+002,9.417393e+001
5.748951e+002,9.653586e+001
5.768236e+002,9.881183e+001
5.787521e+002,1.006129e+002
5.806805e+002,1.022058e+002
5.826090e+002,1.041669e+002
5.845375e+002,1.082814e+002
5.864659e+002,1.089477e+002
5.883944e+002,1.012786e+002
5.903229e+002,9.078875e+001
5.922513e+002,8.876233e+001
5.941798e+002,9.994865e+001
5.961083e+002,1.095826e+002
5.980367e+002,1.117273e+002
5.999652e+002,1.072241e+002
6.018937e+002,1.038140e+002
6.038221e+002,1.016545e+002
6.057506e+002,1.003418e+002
6.076791e+002,1.000127e+002
6.096075e+002,1.006414e+002
6.115360e+002,1.010700e+002
6.134645e+002,9.981416e+001
6.153929e+002,9.929195e+001
6.173214e+002,1.016630e+002
6.192499e+002,1.103240e+002
6.211783e+002,1.154143e+002
6.231068e+002,1.154362e+002
6.250353e+002,1.120054e+002
6.269637e+002,1.069635e+002
6.288922e+002,9.835066e+001
6.308207e+002,9.294407e+001
6.327491e+002,9.495615e+001
6.346776e+002,1.023480e+002
6.366061e+002,1.069320e+002
6.385345e+002,1.048047e+002
6.404630e+002,1.036187e+002
6.423915e+002,1.075730e+002
6.443199e+002,1.157069e+002
6.462484e+002,1.192813e+002
6.481769e+002,1.123131e+002
6.501053e+002,1.059236e+002
6.520338e+002,1.071160e+002
6.539623e+002,1.208272e+002
6.558907e+002,1.279202e+002
6.578192e+002,1.231227e+002
6.597477e+002,1.150694e+002
6.616761e+002,1.124303e+002
6.636046e+002,1.162476e+002
6.655331e+002,1.186907e+002
6.674615e+002,1.165196e+002
6.693900e+002,1.122252e+002
6.713185e+002,1.088927e+002
6.732469e+002,1.063026e+002
6.751754e+002,1.051545e+002
6.771039e+002,1.058092e+002
6.790323e+002,1.081328e+002
6.809608e+002,1.112894e+002
6.828893e+002,1.150492e+002
6.848177e+002,1.200698e+002
6.867462e+002,1.288077e+002
6.886747e+002,1.408289e+002
6.906031e+002,1.454539e+002
6.925316e+002,1.353792e+002
6.944601e+002,1.251212e+002
6.963885e+002,1.212865e+002
6.983170e+002,1.235175e+002
7.002455e+002,1.247841e+002
7.021740e+002,1.238576e+002
7.041024e+002,1.222838e+002
7.060309e+002,1.210265e+002
7.079594e+002,1.203565e+002
7.098878e+002,1.189861e+002
7.118163e+002,1.157595e+002
7.137448e+002,1.125360e+002
7.156732e+002,1.112176e+002
7.176017e+002,1.119773e+002
7.195302e+002,1.128261e+002
7.214586e+002,1.129178e+002
7.233871e+002,1.132294e+002
7.253156e+002,1.148984e+002
7.272440e+002,1.194462e+002
7.291725e+002,1.228518e+002
7.311010e+002,1.240494e+002
7.330294e+002,1.240352e+002
7.349579e+002,1.239249e+002
7.368864e+002,1.218946e+002
7.388149e+002,1.237502e+002
7.407433e+002,1.315231e+002
7.426718e+002,1.443542e+002
7.446003e+002,1.616214e+002
7.465287e+002,1.906587e+002
7.484572e+002,2.153763e+002
7.503857e+002,2.358942e+002
7.523141e+002,2.499361e+002
7.542426e+002,2.500492e+002
7.561711e+002,2.299332e+002
7.580995e+002,2.064332e+002
7.600280e+002,1.833793e+002
7.619565e+002,1.614205e+002
7.638849e+002,1.456286e+002
7.658134e+002,1.393595e+002
7.677419e+002,1.365753e+002
7.696703e+002,1.369342e+002
7.715988e+002,1.404033e+002
7.735273e+002,1.420751e+002
7.754557e+002,1.393150e+002
7.773842e+002,1.376425e+002
7.793127e+002,1.391323e+002
7.812411e+002,1.436477e+002
7.831696e+002,1.519001e+002
7.850981e+002,1.651401e+002
7.870266e+002,1.812448e+002
7.889550e+002,2.024108e+002
7.908835e+002,2.308455e+002
7.928120e+002,2.479646e+002
7.947404e+002,2.502030e+002
7.966689e+002,2.439426e+002
7.985974e+002,2.297527e+002
8.005258e+002,2.074078e+002
8.024543e+002,1.896474e+002
8.043828e+002,1.823982e+002
8.063112e+002,1.771987e+002
8.082397e+002,1.693522e+002
8.101682e+002,1.574267e+002
8.120966e+002,1.475942e+002
8.140251e+002,1.387813e+002
8.159536e+002,1.330242e+002
8.178820e+002,1.334398e+002
8.198105e+002,1.402621e+002
8.217390e+002,1.440385e+002
8.236674e+002,1.395364e+002
8.255959e+002,1.340334e+002
8.275244e+002,1.318223e+002
8.294528e+002,1.343527e+002
8.313813e+002,1.366335e+002
8.333098e+002,1.386880e+002
8.352382e+002,1.404453e+002
8.371667e+002,1.400961e+002
8.390952e+002,1.371454e+002
8.410236e+002,1.403928e+002
8.429521e+002,1.514068e+002
8.448806e+002,1.699284e+002
8.468090e+002,1.957538e+002
8.487375e+002,2.287793e+002
8.506660e+002,2.704756e+002
8.525944e+002,3.400011e+002
8.545229e+002,4.038302e+002
8.564514e+002,4.362978e+002
8.583798e+002,4.383795e+002
8.603083e+002,4.177870e+002
8.622368e+002,3.557412e+002
8.641652e+002,2.878492e+002
8.660937e+002,2.366870e+002
8.680222e+002,2.046114e+002
8.699506e+002,1.795376e+002
8.718791e+002,1.606199e+002
8.738076e+002,1.475808e+002
8.757360e+002,1.423561e+002
8.776645e+002,1.461897e+002
8.795930e+002,1.474134e+002
8.815214e+002,1.428645e+002
8.834499e+002,1.378484e+002
8.853784e+002,1.354168e+002
8.873068e+002,1.355681e+002
8.892353e+002,1.363767e+002
8.911638e+002,1.361323e+002
8.930922e+002,1.377801e+002
8.950207e+002,1.429399e+002
8.969492e+002,1.519660e+002
8.988776e+002,1.620367e+002
9.008061e+002,1.719546e+002
9.027346e+002,1.838352e+002
9.046630e+002,2.017853e+002
9.065915e+002,2.237828e+002
9.085200e+002,2.391456e+002
9.104484e+002,2.472287e+002
9.123769e+002,2.477640e+002
9.143054e+002,2.368902e+002
9.162338e+002,2.155001e+002
9.181623e+002,2.033702e+002
9.200908e+002,2.006510e+002
9.220192e+002,2.057153e+002
9.239477e+002,2.198881e+002
9.258762e+002,2.422555e+002
9.278046e+002,2.697492e+002
9.297331e+002,3.102536e+002
9.316616e+002,3.404586e+002
9.335900e+002,3.526533e+002
9.355185e+002,3.481109e+002
9.374470e+002,3.286295e+002
9.393754e+002,2.768486e+002
9.413039e+002,2.325760e+002
9.432324e+002,2.014435e+002
9.451608e+002,1.817585e+002
9.470893e+002,1.718730e+002
9.490178e+002,1.751696e+002
9.509462e+002,1.773038e+002
9.528747e+002,1.688195e+002
9.548032e+002,1.605948e+002
9.567316e+002,1.670200e+002
9.586601e+002,1.950118e+002
9.605886e+002,2.139910e+002
9.625170e+002,2.166570e+002
9.644455e+002,2.099931e+002
9.663740e+002,1.984880e+002
9.683024e+002,1.783692e+002
9.702309e+002,1.630835e+002
9.721594e+002,1.543160e+002
9.740878e+002,1.491064e+002
9.760163e+002,1.461609e+002
9.779448e+002,1.452678e+002
9.798733e+002,1.449372e+002
9.818018e+002,1.457280e+002
9.837302e+002,1.461168e+002
9.856587e+002,1.450822e+002
9.875872e+002,1.425888e+002
9.895156e+002,1.409697e+002
9.914441e+002,1.425089e+002
9.933726e+002,1.424034e+002
9.953010e+002,1.376956e+002
9.972295e+002,1.299838e+002
9.991580e+002,1.251781e+002
1.001086e+003,1.238677e+002
1.003015e+003,1.241045e+002
1.004943e+003,1.257228e+002
1.006872e+003,1.283671e+002
1.008800e+003,1.316739e+002
1.010729e+003,1.360369e+002
1.012657e+003,1.400652e+002
1.014586e+003,1.442111e+002
1.016514e+003,1.475167e+002
1.018443e+003,1.486700e+002
1.020371e+003,1.463020e+002
1.022300e+003,1.451242e+002
1.024228e+003,1.469456e+002
1.026156e+003,1.487097e+002
1.028085e+003,1.475221e+002
1.030013e+003,1.437903e+002
1.031942e+003,1.418615e+002
1.033870e+003,1.431390e+002
1.035799e+003,1.453452e+002
1.037727e+003,1.484439e+002
1.039656e+003,1.521170e+002
1.041584e+003,1.525756e+002
1.043513e+003,1.419483e+002
1.045441e+003,1.373646e+002
1.047370e+003,1.471561e+002
1.049298e+003,1.649744e+002
1.051227e+003,1.757321e+002
1.053155e+003,1.776831e+002
1.055083e+003,1.787716e+002
1.057012e+003,1.801187e+002
1.058940e+003,1.820130e+002
1.060869e+003,1.845751e+002
1.062797e+003,1.877330e+002
1.064726e+003,1.918663e+002
1.066654e+003,1.936919e+002
1.068583e+003,1.993247e+002
1.070511e+003,2.148867e+002
1.072440e+003,2.418797e+002
1.074368e+003,2.603344e+002
1.076297e+003,2.703487e+002
1.078225e+003,2.730453e+002
1.080154e+003,2.679676e+002
1.082082e+003,2.557423e+002
1.084010e+003,2.378753e+002
1.085939e+003,2.102203e+002
1.087867e+003,1.877370e+002
1.089796e+003,1.786414e+002
1.091724e+003,1.756084e+002
1.093653e+003,1.702012e+002
1.095581e+003,1.603696e+002
1.097510e+003,1.546400e+002
1.099438e+003,1.570483e+002
1.101367e+003,1.608397e+002
1.103295e+003,1.617241e+002
1.105224e+003,1.594410e+002
1.107152e+003,1.576669e+002
1.109081e+003,1.548518e+002
1.111009e+003,1.543498e+002
1.112938e+003,1.595478e+002
1.114866e+003,1.677415e+002
1.116794e+003,1.726721e+002
1.118723e+003,1.734730e+002
1.120651e+003,1.726861e+002
1.122580e+003,1.688825e+002
1.124508e+003,1.650210e+002
1.126437e+003,1.644713e+002
1.128365e+003,1.685446e+002
1.130294e+003,1.719176e+002
1.132222e+003,1.728203e+002
1.134151e+003,1.745770e+002
1.136079e+003,1.795489e+002
1.138008e+003,1.875662e+002
1.139936e+003,1.949668e+002
1.141865e+003,2.042395e+002
1.143793e+003,2.090648e+002
1.145721e+003,2.039262e+002
1.147650e+003,1.940113e+002
1.149578e+003,1.878084e+002
1.151507e+003,1.865775e+002
1.153435e+003,1.835763e+002
1.155364e+003,1.740266e+002
1.157292e+003,1.649174e+002
1.159221e+003,1.622684e+002
1.161149e+003,1.679167e+002
1.163078e+003,1.669120e+002
1.165006e+003,1.499780e+002
1.166935e+003,1.375444e+002
1.168863e+003,1.392657e+002
1.170792e+003,1.499827e+002
1.172720e+003,1.550414e+002
1.174648e+003,1.518131e+002
1.176577e+003,1.504677e+002
1.178505e+003,1.555320e+002
1.180434e+003,1.614499e+002
1.182362e+003,1.637330e+002
1.184291e+003,1.624743e+002
1.186219e+003,1.591172e+002
1.188148e+003,1.485516e+002
1.190076e+003,1.435533e+002
1.192005e+003,1.540488e+002
1.193933e+003,1.741865e+002
1.195862e+003,1.841047e+002
1.197790e+003,1.746981e+002
1.199719e+003,1.693808e+002
1.201647e+003,1.719724e+002
1.203575e+003,1.782283e+002
1.205504e+003,1.861174e+002
1.207432e+003,1.964862e+002
1.209361e+003,1.994288e+002
1.211289e+003,1.904690e+002
1.213218e+003,1.792210e+002
1.215146e+003,1.667728e+002
1.217075e+003,1.555506e+002
1.219003e+003,1.507505e+002
1.220932e+003,1.538960e+002
1.222860e+003,1.583829e+002
1.224789e+003,1.648148e+002
1.226717e+003,1.700614e+002
1.228646e+003,1.703465e+002
1.230574e+003,1.646145e+002
1.232502e+003,1.641587e+002
1.234431e+003,1.758675e+002
1.236359e+003,1.850172e+002
1.238288e+003,1.865129e+002
1.240216e+003,1.830892e+002
1.242145e+003,1.804426e+002
1.244073e+003,1.799140e+002
1.246002e+003,1.769706e+002
1.247930e+003,1.663327e+002
1.249859e+003,1.576146e+002
1.251787e+003,1.601715e+002
1.253716e+003,1.708578e+002
1.255644e+003,1.751613e+002
1.257573e+003,1.690143e+002
1.259501e+003,1.635247e+002
1.261429e+003,1.634375e+002
1.263358e+003,1.657043e+002
1.265286e+003,1.670820e+002
1.267215e+003,1.673254e+002
1.269143e+003,1.679297e+002
1.271072e+003,1.703466e+002
1.273000e+003,1.716924e+002
1.274929e+003,1.691825e+002
1.276857e+003,1.646629e+002
1.278786e+003,1.643204e+002
1.280714e+003,1.727269e+002
1.282643e+003,1.788732e+002
1.284571e+003,1.813955e+002
1.286500e+003,1.825533e+002
1.288428e+003,1.832898e+002
1.290356e+003,1.838274e+002
1.292285e+003,1.864630e+002
1.294213e+003,1.911998e+002
1.296142e+003,1.980763e+002
1.298070e+003,2.113682e+002
1.299999e+003,2.242584e+002
1.301927e+003,2.279368e+002
1.303856e+003,2.216938e+002
1.305784e+003,2.172287e+002
1.307713e+003,2.172457e+002
1.309641e+003,2.181519e+002
1.311570e+003,2.193757e+002
1.313498e+003,2.202721e+002
1.315427e+003,2.190975e+002
1.317355e+003,2.157720e+002
1.319283e+003,2.105017e+002
1.321212e+003,1.987478e+002
1.323140e+003,1.894341e+002
1.325069e+003,1.898957e+002
1.326997e+003,1.990098e+002
1.328926e+003,2.047125e+002
1.330854e+003,2.066228e+002
1.332783e+003,2.060921e+002
1.334711e+003,1.977596e+002
1.336640e+003,1.909325e+002
1.338568e+003,1.979117e+002
1.340497e+003,2.170952e+002
1.342425e+003,2.288013e+002
1.344354e+003,2.279137e+002
1.346282e+003,2.262311e+002
1.348210e+003,2.315760e+002
1.350139e+003,2.367555e+002
1.352068e+003,2.318706e+002
1.353996e+003,2.161225e+002
1.355924e+003,2.026480e+002
1.357853e+003,1.910113e+002
1.359781e+003,1.853069e+002
1.361710e+003,1.896186e+002
1.363638e+003,1.999169e+002
1.365567e+003,2.086732e+002
1.367495e+003,2.169726e+002
1.369424e+003,2.206305e+002
1.371352e+003,2.168597e+002
1.373281e+003,2.116678e+002
1.375209e+003,2.070145e+002
1.377138e+003,2.031264e+002
1.379066e+003,2.004988e+002
1.380995e+003,1.970722e+002
1.382923e+003,1.989030e+002
1.384851e+003,2.064683e+002
1.386780e+003,2.192367e+002
1.388708e+003,2.392221e+002
1.390637e+003,2.645255e+002
1.392565e+003,2.876623e+002
1.394494e+003,3.092072e+002
1.396422e+003,3.266011e+002
1.398351e+003,3.429127e+002
1.400279e+003,3.515298e+002
1.402208e+003,3.456698e+002
1.404136e+003,3.282502e+002
1.406065e+003,3.070139e+002
1.407993e+003,2.781450e+002
1.409922e+003,2.583305e+002
1.411850e+003,2.580979e+002
1.413778e+003,2.636643e+002
1.415707e+003,2.640235e+002
1.417635e+003,2.604502e+002
1.419564e+003,2.668872e+002
1.421492e+003,2.892682e+002
1.423421e+003,3.110988e+002
1.425349e+003,3.370421e+002
1.427278e+003,3.547170e+002
1.429206e+003,3.517916e+002
1.431135e+003,3.283018e+002
1.433063e+003,3.034624e+002
1.434992e+003,2.729057e+002
1.436920e+003,2.469769e+002
1.438849e+003,2.257976e+002
1.440777e+003,2.108373e+002
1.442705e+003,2.058760e+002
1.444634e+003,2.103740e+002
1.446562e+003,2.102509e+002
1.448491e+003,2.008446e+002
1.450419e+003,1.953395e+002
1.452348e+003,2.022146e+002
1.454276e+003,2.088238e+002
1.456205e+003,2.011091e+002
1.458133e+003,1.824505e+002
1.460062e+003,1.737017e+002
1.461990e+003,1.780958e+002
1.463919e+003,1.848914e+002
1.465847e+003,1.961625e+002
1.467776e+003,2.044593e+002
1.469704e+003,2.016472e+002
1.471632e+003,1.912840e+002
1.473561e+003,1.852099e+002
1.475489e+003,1.842480e+002
1.477418e+003,1.870444e+002
1.479346e+003,1.965197e+002
1.481275e+003,2.061883e+002
1.483203e+003,2.124685e+002
1.485132e+003,2.155400e+002
1.487060e+003,2.156397e+002
1.488989e+003,2.111797e+002
1.490917e+003,2.090523e+002
1.492846e+003,2.131704e+002
1.494774e+003,2.174085e+002
1.496703e+003,2.172501e+002
1.498631e+003,2.151445e+002
1.500559e+003,2.194676e+002
1.502488e+003,2.358737e+002
1.504416e+003,2.425226e+002
1.506345e+003,2.290261e+002
1.508273e+003,2.157862e+002
1.510202e+003,2.126262e+002
1.512130e+003,2.144836e+002
1.514059e+003,2.112774e+002
1.515987e+003,1.999351e+002
1.517916e+003,1.933242e+002
1.519844e+003,1.945132e+002
1.521773e+003,1.962447e+002
1.523701e+003,1.958364e+002
1.525630e+003,1.950256e+002
1.527558e+003,1.966414e+002
1.529486e+003,2.011457e+002
1.531415e+003,2.028572e+002
1.533343e+003,1.984050e+002
1.535272e+003,1.956284e+002
1.537200e+003,1.993144e+002
1.539129e+003,2.027780e+002
1.541057e+003,1.974153e+002
1.542986e+003,1.851127e+002
1.544914e+003,1.818396e+002
1.546843e+003,1.912863e+002
1.548771e+003,2.003146e+002
1.550700e+003,2.082113e+002
1.552628e+003,2.130864e+002
1.554557e+003,2.118101e+002
1.556485e+003,2.066436e+002
1.558413e+003,2.035708e+002
1.560342e+003,2.027449e+002
1.562270e+003,2.027489e+002
1.564199e+003,2.044885e+002
1.566127e+003,2.053139e+002
1.568056e+003,2.030054e+002
1.569984e+003,1.996080e+002
1.571913e+003,1.971415e+002
1.573841e+003,1.957334e+002
1.575770e+003,1.980460e+002
1.577698e+003,2.069332e+002
1.579627e+003,2.136383e+002
1.581555e+003,2.115480e+002
1.583484e+003,2.090967e+002
1.585412e+003,2.150284e+002
1.587340e+003,2.266180e+002
1.589269e+003,2.319664e+002
1.591197e+003,2.292235e+002
1.593126e+003,2.255634e+002
1.595054e+003,2.210499e+002
1.596983e+003,2.179983e+002
1.598911e+003,2.171227e+002
1.600840e+003,2.185877e+002
1.602768e+003,2.239518e+002
1.604697e+003,2.337053e+002
1.606625e+003,2.398595e+002
1.608554e+003,2.407979e+002
1.610482e+003,2.393653e+002
1.612411e+003,2.329470e+002
1.614339e+003,2.277178e+002
1.616267e+003,2.309554e+002
1.618196e+003,2.413726e+002
1.620124e+003,2.465083e+002
1.622053e+003,2.432738e+002
1.623981e+003,2.433808e+002
1.625910e+003,2.520236e+002
1.627838e+003,2.611865e+002
1.629767e+003,2.659595e+002
1.631695e+003,2.689588e+002
1.633624e+003,2.754731e+002
1.635552e+003,2.859256e+002
1.637481e+003,2.963668e+002
1.639409e+003,3.082457e+002
1.641338e+003,3.173561e+002
1.643266e+003,3.227068e+002
1.645194e+003,3.252949e+002
1.647123e+003,3.256459e+002
1.649051e+003,3.238334e+002
1.650980e+003,3.203667e+002
1.652908e+003,3.153347e+002
1.654837e+003,3.078625e+002
1.656765e+003,2.932299e+002
1.658694e+003,2.815709e+002
1.660622e+003,2.793515e+002
1.662551e+003,2.802260e+002
1.664479e+003,2.763016e+002
1.666408e+003,2.675524e+002
1.668336e+003,2.580947e+002
1.670265e+003,2.453472e+002
1.672193e+003,2.374145e+002
1.674121e+003,2.402606e+002
1.676050e+003,2.426481e+002
1.677978e+003,2.369534e+002
1.679907e+003,2.269103e+002
1.681835e+003,2.201497e+002
1.683764e+003,2.168017e+002
1.685692e+003,2.156543e+002
1.687621e+003,2.193328e+002
1.689549e+003,2.209636e+002
1.691478e+003,2.186593e+002
1.693406e+003,2.146250e+002
1.695335e+003,2.079836e+002
1.697263e+003,2.010942e+002
1.699192e+003,2.032809e+002
1.701120e+003,2.196426e+002
1.703048e+003,2.264160e+002
1.704977e+003,2.130533e+002
1.706905e+003,2.024596e+002
1.708834e+003,2.013927e+002
1.710762e+003,2.042534e+002
1.712691e+003,2.072569e+002
1.714619e+003,2.101793e+002
1.716548e+003,2.118978e+002
1.718476e+003,2.126042e+002
1.720405e+003,2.119133e+002
1.722333e+003,2.079154e+002
1.724262e+003,2.052394e+002
1.726190e+003,2.059341e+002
1.728119e+003,2.079220e+002
1.730047e+003,2.095138e+002
1.731975e+003,2.106318e+002
1.733904e+003,2.111029e+002
1.735832e+003,2.110461e+002
1.737761e+003,2.098828e+002
1.739689e+003,2.064730e+002
1.741618e+003,2.035411e+002
1.743546e+003,2.003668e+002
1.745475e+003,1.993629e+002
1.747403e+003,2.050854e+002
1.749332e+003,2.159610e+002
1.751260e+003,2.195906e+002
1.753189e+003,2.138512e+002
1.755117e+003,2.097864e+002
1.757046e+003,2.105517e+002
1.758974e+003,2.108625e+002
1.760902e+003,2.077469e+002
1.762831e+003,2.044294e+002
1.764759e+003,2.039202e+002
1.766688e+003,2.057265e+002
1.768616e+003,2.078880e+002
1.770545e+003,2.105700e+002
1.772473e+003,2.114270e+002
1.774402e+003,2.080077e+002
1.776330e+003,2.062333e+002
1.778259e+003,2.104724e+002
1.780187e+003,2.153452e+002
1.782116e+003,2.162357e+002
1.784044e+003,2.145151e+002
1.785973e+003,2.142050e+002
1.787901e+003,2.156026e+002
1.789829e+003,2.154520e+002
1.791758e+003,2.124719e+002
1.793686e+003,2.100843e+002
1.795615e+003,2.097002e+002
1.797543e+003,2.100756e+002
1.799472e+003,2.108533e+002
1.801400e+003,2.115468e+002
1.803329e+003,2.102984e+002
1.805257e+003,2.072428e+002
1.807186e+003,2.088134e+002
1.809114e+003,2.188180e+002
1.811043e+003,2.237282e+002
1.812971e+003,2.137027e+002
1.814900e+003,2.048807e+002
1.816828e+003,2.094091e+002
1.818756e+003,2.186284e+002
1.820685e+003,2.197657e+002
1.822613e+003,2.140028e+002
1.824542e+003,2.104925e+002
1.826470e+003,2.102942e+002
1.828399e+003,2.093622e+002
1.830327e+003,2.062364e+002
1.832256e+003,2.033390e+002
1.834184e+003,2.004624e+002
1.836113e+003,1.991512e+002
1.838041e+003,2.023223e+002
1.839970e+003,2.083866e+002
1.841898e+003,2.109888e+002
1.843827e+003,2.085676e+002
1.845755e+003,2.087509e+002
1.847684e+003,2.151583e+002
1.849612e+003,2.187622e+002
1.851541e+003,2.133940e+002
1.853469e+003,2.094895e+002
1.855397e+003,2.161944e+002
1.857326e+003,2.270299e+002
1.859254e+003,2.310830e+002
1.861183e+003,2.282351e+002
1.863111e+003,2.251574e+002
1.865040e+003,2.216499e+002
1.866968e+003,2.185711e+002
1.868897e+003,2.159518e+002
1.870825e+003,2.139657e+002
1.872754e+003,2.116249e+002
1.874682e+003,2.109617e+002
1.876611e+003,2.147652e+002
1.878539e+003,2.214246e+002
1.880468e+003,2.274424e+002
1.882396e+003,2.331815e+002
1.884324e+003,2.305393e+002
1.886253e+003,2.139156e+002
1.888181e+003,2.036027e+002
1.890110e+003,2.087140e+002
1.892038e+003,2.149002e+002
1.893967e+003,2.143913e+002
1.895895e+003,2.116890e+002
1.897824e+003,2.113662e+002
1.899752e+003,2.126860e+002
1.901681e+003,2.134839e+002
1.903609e+003,2.137565e+002
1.905538e+003,2.130347e+002
1.907466e+003,2.102449e+002
1.909395e+003,2.092605e+002
1.911323e+003,2.133487e+002
1.913251e+003,2.171504e+002
1.915180e+003,2.166119e+002
1.917108e+003,2.148183e+002
1.919037e+003,2.162957e+002
1.920965e+003,2.202668e+002
1.922894e+003,2.219741e+002
1.924822e+003,2.205045e+002
1.926751e+003,2.203704e+002
1.928679e+003,2.237410e+002
1.930608e+003,2.255564e+002
1.932536e+003,2.216024e+002
1.934465e+003,2.197043e+002
1.936393e+003,2.284421e+002
1.938322e+003,2.389397e+002
1.940250e+003,2.375975e+002
1.942178e+003,2.262956e+002
1.944107e+003,2.188711e+002
1.946035e+003,2.156018e+002
1.947964e+003,2.156869e+002
1.949892e+003,2.225527e+002
1.951821e+003,2.259356e+002
1.953749e+003,2.199534e+002
1.955678e+003,2.145409e+002
1.957606e+003,2.157219e+002
1.959535e+003,2.188776e+002
1.961463e+003,2.193195e+002
1.963392e+003,2.173708e+002
1.965320e+003,2.120879e+002
1.967249e+003,2.033046e+002
1.969177e+003,2.046162e+002
1.971105e+003,2.211821e+002
1.973034e+003,2.356835e+002
1.974962e+003,2.460192e+002
1.976891e+003,2.502136e+002
1.978819e+003,2.435207e+002
1.980748e+003,2.337990e+002
1.982676e+003,2.258714e+002
1.984605e+003,2.210735e+002
1.986533e+003,2.247175e+002
1.988462e+003,2.375954e+002
1.990390e+003,2.437105e+002
1.992319e+003,2.368100e+002
1.994247e+003,2.341938e+002
1.996176e+003,2.411711e+002
1.998104e+003,2.452535e+002
2.000032e+003,2.403748e+002
2.001961e+003,2.348006e+002
2.003889e+003,2.349355e+002
2.005818e+003,2.368452e+002
2.007746e+003,2.336220e+002
2.009675e+003,2.265515e+002
2.011603e+003,2.242574e+002
2.013532e+003,2.271391e+002
2.015460e+003,2.309523e+002
2.017389e+003,2.359456e+002
2.019317e+003,2.399412e+002
2.021246e+003,2.421689e+002
2.023174e+003,2.438261e+002
2.025103e+003,2.471140e+002
2.027031e+003,2.484772e+002
2.028959e+003,2.426456e+002
2.030888e+003,2.336188e+002
2.032816e+003,2.298724e+002
2.034745e+003,2.309694e+002
2.036673e+003,2.289886e+002
2.038602e+003,2.217395e+002
2.040530e+003,2.180152e+002
2.042459e+003,2.190954e+002
2.044387e+003,2.221031e+002
2.046316e+003,2.280385e+002
2.048244e+003,2.339669e+002
2.050173e+003,2.412873e+002
2.052101e+003,2.454572e+002
2.054030e+003,2.383641e+002
2.055958e+003,2.262132e+002
2.057886e+003,2.243677e+002
2.059815e+003,2.318097e+002
2.061743e+003,2.381760e+002
2.063672e+003,2.431699e+002
2.065600e+003,2.456767e+002
2.067529e+003,2.446610e+002
2.069457e+003,2.435093e+002
2.071386e+003,2.431749e+002
2.073314e+003,2.430406e+002
2.075243e+003,2.410968e+002
2.077171e+003,2.409619e+002
2.079100e+003,2.494650e+002
2.081028e+003,2.605181e+002
2.082957e+003,2.609167e+002
2.084885e+003,2.515632e+002
2.086813e+003,2.445664e+002
2.088742e+003,2.397101e+002
2.090670e+003,2.375895e+002
2.092599e+003,2.384781e+002
2.094527e+003,2.415005e+002
2.096456e+003,2.497085e+002
2.098384e+003,2.553925e+002
2.100313e+003,2.557241e+002
2.102241e+003,2.528758e+002
2.104170e+003,2.454867e+002
2.106098e+003,2.377788e+002
2.108027e+003,2.351506e+002
2.109955e+003,2.366361e+002
2.111884e+003,2.403863e+002
2.113812e+003,2.463103e+002
2.115740e+003,2.491859e+002
2.117669e+003,2.492514e+002
2.119597e+003,2.446971e+002
2.121526e+003,2.273102e+002
2.123454e+003,2.175827e+002
2.125383e+003,2.252802e+002
2.127311e+003,2.345830e+002
2.129240e+003,2.395215e+002
2.131168e+003,2.410040e+002
2.133097e+003,2.367496e+002
2.135025e+003,2.311956e+002
2.136954e+003,2.345543e+002
2.138882e+003,2.442097e+002
2.140811e+003,2.457690e+002
2.142739e+003,2.390858e+002
2.144667e+003,2.369657e+002
2.146596e+003,2.416327e+002
2.148524e+003,2.456854e+002
2.150453e+003,2.474503e+002
2.152381e+003,2.488292e+002
2.154310e+003,2.519564e+002
2.156238e+003,2.527345e+002
2.158167e+003,2.460062e+002
2.160095e+003,2.391306e+002
2.162024e+003,2.404927e+002
2.163952e+003,2.453148e+002
2.165881e+003,2.445241e+002
2.167809e+003,2.394456e+002
2.169738e+003,2.377710e+002
2.171666e+003,2.394825e+002
2.173594e+003,2.418035e+002
2.175523e+003,2.445090e+002
2.177451e+003,2.481729e+002
2.179380e+003,2.541643e+002
2.181308e+003,2.575937e+002
2.183237e+003,2.554632e+002
2.185165e+003,2.531231e+002
2.187094e+003,2.527489e+002
2.189022e+003,2.533034e+002
2.190951e+003,2.547232e+002
2.192879e+003,2.560596e+002
2.194808e+003,2.552359e+002
2.196736e+003,2.534245e+002
2.198665e+003,2.545082e+002
2.200593e+003,2.582802e+002
2.202521e+003,2.602030e+002
2.204450e+003,2.602063e+002
2.206378e+003,2.589402e+002
2.208307e+003,2.566740e+002
2.210235e+003,2.519475e+002
2.212164e+003,2.412972e+002
2.214092e+003,2.359245e+002
2.216021e+003,2.462210e+002
2.217949e+003,2.537780e+002
2.219878e+003,2.450876e+002
2.221806e+003,2.358099e+002
2.223735e+003,2.396206e+002
2.225663e+003,2.488652e+002
2.227592e+003,2.545886e+002
2.229520e+003,2.571897e+002
2.231448e+003,2.577954e+002
2.233377e+003,2.564635e+002
2.235305e+003,2.525052e+002
2.237234e+003,2.459082e+002
2.239162e+003,2.426674e+002
2.241091e+003,2.432702e+002
2.243019e+003,2.482058e+002
2.244948e+003,2.610658e+002
2.246876e+003,2.701158e+002
2.248805e+003,2.719513e+002
2.250733e+003,2.694122e+002
2.252662e+003,2.585997e+002
2.254590e+003,2.495276e+002
2.256519e+003,2.508479e+002
2.258447e+003,2.548214e+002
2.260375e+003,2.526469e+002
2.262304e+003,2.487226e+002
2.264232e+003,2.527513e+002
2.266161e+003,2.608283e+002
2.268089e+003,2.582810e+002
2.270018e+003,2.469705e+002
2.271946e+003,2.461899e+002
2.273875e+003,2.582954e+002
2.275803e+003,2.665681e+002
2.277732e+003,2.707460e+002
2.279660e+003,2.690270e+002
2.281589e+003,2.559832e+002
2.283517e+003,2.457970e+002
2.285446e+003,2.404623e+002
2.287374e+003,2.386592e+002
2.289302e+003,2.408322e+002
2.291231e+003,2.452512e+002
2.293159e+003,2.525183e+002
2.295088e+003,2.599207e+002
2.297016e+003,2.659537e+002
2.298945e+003,2.700771e+002
2.300873e+003,2.712866e+002
2.302802e+003,2.701231e+002
2.304730e+003,2.678845e+002
2.306659e+003,2.645124e+002
2.308587e+003,2.589187e+002
2.310516e+003,2.504231e+002
2.312444e+003,2.454702e+002
2.314373e+003,2.442100e+002
2.316301e+003,2.462567e+002
2.318229e+003,2.529920e+002
2.320158e+003,2.570846e+002
2.322086e+003,2.558156e+002
2.324015e+003,2.554225e+002
2.325943e+003,2.575662e+002
2.327872e+003,2.614407e+002
2.329800e+003,2.672716e+002
2.331729e+003,2.740353e+002
2.333657e+003,2.849677e+002
2.335586e+003,2.923083e+002
2.337514e+003,2.860302e+002
2.339443e+003,2.749090e+002
2.341371e+003,2.692811e+002
2.343300e+003,2.672601e+002
2.345228e+003,2.666890e+002
2.347156e+003,2.663956e+002
2.349085e+003,2.608127e+002
2.351013e+003,2.508482e+002
2.352942e+003,2.492978e+002
2.354870e+003,2.579373e+002
2.356799e+003,2.643135e+002
2.358727e+003,2.688966e+002
2.360656e+003,2.697189e+002
2.362584e+003,2.650604e+002
2.364513e+003,2.611216e+002
2.366441e+003,2.579666e+002
2.368370e+003,2.579976e+002
2.370298e+003,2.657469e+002
2.372227e+003,2.692953e+002
2.374155e+003,2.587703e+002
2.376083e+003,2.495631e+002
2.378012e+003,2.498194e+002
2.379940e+003,2.539418e+002
2.381869e+003,2.623755e+002
2.383797e+003,2.682179e+002
2.385726e+003,2.593003e+002
2.387654e+003,2.474817e+002
2.389583e+003,2.524809e+002
2.391511e+003,2.657348e+002
2.393440e+003,2.696931e+002
2.395368e+003,2.671068e+002
2.397297e+003,2.681353e+002
2.399225e+003,2.724838e+002
2.401154e+003,2.770717e+002
2.403082e+003,2.826036e+002
2.405010e+003,2.813275e+002
2.406939e+003,2.714563e+002
2.408867e+003,2.635190e+002
2.410796e+003,2.577959e+002
2.412724e+003,2.557817e+002
2.414653e+003,2.579792e+002
2.416581e+003,2.632637e+002
2.418510e+003,2.753583e+002
2.420438e+003,2.824497e+002
2.422367e+003,2.792632e+002
2.424295e+003,2.732674e+002
2.426224e+003,2.632313e+002
2.428152e+003,2.560857e+002
2.430081e+003,2.555720e+002
2.432009e+003,2.584959e+002
2.433938e+003,2.680824e+002
2.435866e+003,2.746973e+002
2.437794e+003,2.659595e+002
2.439723e+003,2.546836e+002
2.441651e+003,2.548445e+002
2.443580e+003,2.615163e+002
2.445508e+003,2.702236e+002
2.447437e+003,2.780644e+002
2.449365e+003,2.762059e+002
2.451294e+003,2.682463e+002
2.453222e+003,2.697354e+002
2.455151e+003,2.777463e+002
2.457079e+003,2.779671e+002
2.459008e+003,2.707587e+002
2.460936e+003,2.628850e+002
2.462865e+003,2.539482e+002
2.464793e+003,2.506569e+002
2.466721e+003,2.553911e+002
2.468650e+003,2.577191e+002
2.470578e+003,2.565419e+002
2.472507e+003,2.569109e+002
2.474435e+003,2.593958e+002
2.476364e+003,2.625699e+002
2.478292e+003,2.658594e+002
2.480221e+003,2.707276e+002
2.482149e+003,2.820698e+002
2.484078e+003,2.877964e+002
2.486006e+003,2.795265e+002
2.487935e+003,2.740486e+002
2.489863e+003,2.786789e+002
2.491792e+003,2.838829e+002
2.493720e+003,2.879115e+002
2.495648e+003,2.888621e+002
2.497577e+003,2.841116e+002
2.499505e+003,2.778707e+002
2.501434e+003,2.705080e+002
2.503362e+003,2.657520e+002
2.505291e+003,2.691347e+002
2.507219e+003,2.743333e+002
2.509148e+003,2.757728e+002
2.511076e+003,2.745131e+002
2.513005e+003,2.691066e+002
2.514933e+003,2.638371e+002
2.516862e+003,2.669150e+002
2.518790e+003,2.732106e+002
2.520719e+003,2.723552e+002
2.522647e+003,2.673832e+002
2.524575e+003,2.664836e+002
2.526504e+003,2.686597e+002
2.528432e+003,2.702982e+002
2.530361e+003,2.712067e+002
2.532289e+003,2.686192e+002
2.534218e+003,2.638628e+002
2.536146e+003,2.679082e+002
2.538075e+003,2.807027e+002
2.540003e+003,2.829847e+002
2.541932e+003,2.729135e+002
2.543860e+003,2.672261e+002
2.545789e+003,2.661151e+002
2.547717e+003,2.698896e+002
2.549646e+003,2.796572e+002
2.551574e+003,2.819896e+002
2.553502e+003,2.739203e+002
2.555431e+003,2.709148e+002
2.557359e+003,2.779648e+002
2.559288e+003,2.814269e+002
2.561216e+003,2.756531e+002
2.563145e+003,2.751137e+002
2.565073e+003,2.839836e+002
2.567002e+003,2.881474e+002
2.568930e+003,2.832116e+002
2.570859e+003,2.801592e+002
2.572787e+003,2.832737e+002
2.574716e+003,2.854709e+002
2.576644e+003,2.847844e+002
2.578573e+003,2.828538e+002
2.580501e+003,2.781151e+002
2.582429e+003,2.752267e+002
2.584358e+003,2.764117e+002
2.586287e+003,2.775286e+002
2.588215e+003,2.749134e+002
2.590144e+003,2.756816e+002
2.592072e+003,2.880333e+002
2.594000e+003,2.977156e+002
2.595929e+003,2.953195e+002
2.597857e+003,2.918100e+002
2.599786e+003,2.909159e+002
2.601714e+003,2.934059e+002
2.603643e+003,3.046044e+002
2.605571e+003,3.122967e+002
2.607500e+003,3.063667e+002
2.609428e+003,2.962728e+002
2.611357e+003,2.866241e+002
2.613285e+003,2.786974e+002
2.615214e+003,2.713460e+002
2.617142e+003,2.687602e+002
2.619071e+003,2.778626e+002
2.620999e+003,2.898524e+002
2.622927e+003,2.977911e+002
2.624856e+003,3.040966e+002
2.626784e+003,3.121344e+002
2.628713e+003,3.189695e+002
2.630641e+003,3.238280e+002
2.632570e+003,3.232428e+002
2.634498e+003,3.055873e+002
2.636427e+003,2.867638e+002
2.638355e+003,2.876837e+002
2.640284e+003,2.977824e+002
2.642212e+003,3.064691e+002
2.644141e+003,3.128745e+002
2.646069e+003,3.154566e+002
2.647998e+003,3.150032e+002
2.649926e+003,3.109782e+002
2.651854e+003,3.061577e+002
2.653783e+003,3.075417e+002
2.655711e+003,3.096789e+002
2.657640e+003,3.003922e+002
2.659568e+003,2.880442e+002
2.661497e+003,2.883569e+002
2.663425e+003,2.969999e+002
2.665354e+003,3.085959e+002
2.667282e+003,3.198315e+002
2.669211e+003,3.233123e+002
2.671139e+003,3.210999e+002
2.673068e+003,3.136174e+002
2.674996e+003,3.057986e+002
2.676925e+003,3.126093e+002
2.678853e+003,3.255320e+002
2.680781e+003,3.230126e+002
2.682710e+003,3.110442e+002
2.684638e+003,3.013261e+002
2.686567e+003,2.950253e+002
2.688495e+003,2.951219e+002
2.690424e+003,2.998536e+002
2.692352e+003,3.064646e+002
2.694281e+003,3.136750e+002
2.696209e+003,3.182095e+002
2.698138e+003,3.205450e+002
2.700066e+003,3.203483e+002
2.701995e+003,3.195102e+002
2.703923e+003,3.227386e+002
2.705852e+003,3.282050e+002
2.707780e+003,3.326589e+002
2.709708e+003,3.353261e+002
2.711637e+003,3.307600e+002
2.713565e+003,3.249688e+002
2.715494e+003,3.367944e+002
2.717422e+003,3.556681e+002
2.719351e+003,3.584905e+002
2.721279e+003,3.533884e+002
2.723208e+003,3.585339e+002
2.725136e+003,3.685473e+002
2.727065e+003,3.734119e+002
2.728993e+003,3.732406e+002
2.730922e+003,3.647153e+002
2.732850e+003,3.533527e+002
2.734779e+003,3.483502e+002
2.736707e+003,3.474957e+002
2.738635e+003,3.485189e+002
2.740564e+003,3.495352e+002
2.742492e+003,3.467099e+002
2.744421e+003,3.421779e+002
2.746349e+003,3.394440e+002
2.748278e+003,3.370232e+002
2.750206e+003,3.313803e+002
2.752135e+003,3.257705e+002
2.754063e+003,3.249784e+002
2.755992e+003,3.269821e+002
2.757920e+003,3.310428e+002
2.759849e+003,3.345032e+002
2.761777e+003,3.321366e+002
2.763706e+003,3.302051e+002
2.765634e+003,3.407744e+002
2.767563e+003,3.504045e+002
2.769491e+003,3.394553e+002
2.771419e+003,3.257779e+002
2.773348e+003,3.275253e+002
2.775276e+003,3.321069e+002
2.777205e+003,3.280179e+002
2.779133e+003,3.223780e+002
2.781062e+003,3.187232e+002
2.782990e+003,3.191281e+002
2.784919e+003,3.261223e+002
2.786847e+003,3.366190e+002
2.788776e+003,3.533015e+002
2.790704e+003,3.664536e+002
2.792633e+003,3.696809e+002
2.794561e+003,3.683495e+002
2.796490e+003,3.600658e+002
2.798418e+003,3.568783e+002
2.800346e+003,3.684010e+002
2.802275e+003,3.781740e+002
2.804203e+003,3.763087e+002
2.806132e+003,3.737831e+002
2.808060e+003,3.756122e+002
2.809989e+003,3.758467e+002
2.811917e+003,3.712906e+002
2.813846e+003,3.678422e+002
2.815774e+003,3.680235e+002
2.817703e+003,3.676817e+002
2.819631e+003,3.646402e+002
2.821560e+003,3.627531e+002
2.823488e+003,3.617534e+002
2.825417e+003,3.649921e+002
2.827345e+003,3.746920e+002
2.829273e+003,3.812306e+002
2.831202e+003,3.796916e+002
2.833130e+003,3.855544e+002
2.835059e+003,4.078275e+002
2.836987e+003,4.172135e+002
2.838916e+003,4.099322e+002
2.840844e+003,4.112044e+002
2.842773e+003,4.240155e+002
2.844701e+003,4.338161e+002
2.846630e+003,4.386503e+002
2.848558e+003,4.466005e+002
2.850487e+003,4.579695e+002
2.852415e+003,4.696108e+002
2.854344e+003,4.807454e+002
2.856272e+003,4.848648e+002
2.858200e+003,4.813803e+002
2.860129e+003,4.630758e+002
2.862057e+003,4.352076e+002
2.863986e+003,4.320441e+002
2.865914e+003,4.450495e+002
2.867843e+003,4.458904e+002
2.869771e+003,4.405727e+002
2.871700e+003,4.416758e+002
2.873628e+003,4.479264e+002
2.875557e+003,4.600291e+002
2.877485e+003,4.729650e+002
2.879414e+003,4.785458e+002
2.881342e+003,4.811659e+002
2.883271e+003,4.836435e+002
2.885199e+003,4.881927e+002
2.887127e+003,4.989096e+002
2.889056e+003,5.103309e+002
2.890984e+003,5.165153e+002
2.892913e+003,5.237511e+002
2.894841e+003,5.374618e+002
2.896770e+003,5.507889e+002
2.898698e+003,5.555121e+002
2.900627e+003,5.661342e+002
2.902555e+003,5.916016e+002
2.904484e+003,6.158105e+002
2.906412e+003,6.293491e+002
2.908341e+003,6.521229e+002
2.910269e+003,6.894841e+002
2.912198e+003,7.364410e+002
2.914126e+003,7.818920e+002
2.916054e+003,8.669608e+002
2.917983e+003,9.894362e+002
2.919911e+003,1.203396e+003
2.921840e+003,1.538712e+003
2.923768e+003,1.911829e+003
2.925697e+003,2.353792e+003
2.927625e+003,2.479597e+003
2.929554e+003,2.299860e+003
2.931482e+003,1.969234e+003
2.933411e+003,1.529293e+003
2.935339e+003,1.212574e+003
2.937268e+003,1.008306e+003
2.939196e+003,8.938985e+002
2.941125e+003,8.488955e+002
2.943053e+003,8.268848e+002
2.944981e+003,8.367650e+002
2.946910e+003,8.966943e+002
2.948838e+003,9.969592e+002
2.950767e+003,1.115779e+003
2.952695e+003,1.281679e+003
2.954624e+003,1.463693e+003
2.956552e+003,1.775307e+003
2.958481e+003,2.376735e+003
2.960409e+003,3.023309e+003
2.962338e+003,3.872541e+003
2.964266e+003,4.219944e+003
2.966195e+003,3.659090e+003
2.968123e+003,2.938184e+003
2.970052e+003,2.134654e+003
2.971980e+003,1.532561e+003
2.973908e+003,1.173541e+003
2.975837e+003,9.759910e+002
2.977765e+003,9.404328e+002
2.979694e+003,1.012716e+003
2.981622e+003,1.225922e+003
2.983551e+003,1.337700e+003
2.985479e+003,1.347257e+003
2.987408e+003,1.238670e+003
2.989336e+003,1.036967e+003
2.991265e+003,8.595355e+002
2.993193e+003,7.157521e+002
2.995122e+003,6.384645e+002
2.997050e+003,6.080896e+002
2.998979e+003,5.857626e+002
3.000907e+003,5.820051e+002
3.002835e+003,6.124736e+002
3.004764e+003,6.642285e+002
3.006692e+003,7.510840e+002
3.008621e+003,8.167087e+002
3.010549e+003,8.316779e+002
3.012478e+003,8.041281e+002
3.014406e+003,7.065343e+002
3.016335e+003,6.208502e+002
3.018263e+003,5.794639e+002
3.020192e+003,5.449497e+002
3.022120e+003,5.113896e+002
3.024049e+003,4.884573e+002
3.025977e+003,4.794339e+002
3.027906e+003,4.768168e+002
3.029834e+003,4.820028e+002
3.031762e+003,4.729421e+002
3.033691e+003,4.527509e+002
3.035619e+003,4.596815e+002
3.037548e+003,4.855599e+002
3.039476e+003,4.898524e+002
3.041405e+003,4.814323e+002
3.043333e+003,4.787918e+002
3.045262e+003,4.820195e+002
3.047190e+003,4.965199e+002
3.049119e+003,5.095299e+002
3.051047e+003,5.042216e+002
3.052976e+003,4.970191e+002
3.054904e+003,5.000231e+002
3.056833e+003,5.006352e+002
3.058761e+003,4.883971e+002
3.060689e+003,4.818573e+002
3.062618e+003,4.918008e+002
3.064546e+003,4.932160e+002
3.066475e+003,4.807641e+002
3.068403e+003,4.781493e+002
3.070332e+003,4.918673e+002
3.072260e+003,4.971247e+002
3.074189e+003,4.935836e+002
3.076117e+003,4.862458e+002
3.078046e+003,4.761725e+002
3.079974e+003,4.679324e+002
3.081903e+003,4.610462e+002
3.083831e+003,4.542109e+002
3.085760e+003,4.485779e+002
3.087688e+003,4.467667e+002
3.089616e+003,4.458266e+002
3.091545e+003,4.443756e+002
3.093473e+003,4.415908e+002
3.095402e+003,4.375877e+002
3.097330e+003,4.303424e+002
3.099259e+003,4.160174e+002
3.101187e+003,4.070445e+002
3.103116e+003,4.132416e+002
3.105044e+003,4.085990e+002
3.106973e+003,3.906376e+002
3.108901e+003,3.876755e+002
3.110830e+003,3.996591e+002
3.112758e+003,3.900465e+002
3.114687e+003,3.653726e+002
3.116615e+003,3.599232e+002
3.118543e+003,3.653570e+002
3.120472e+003,3.652213e+002
3.122400e+003,3.641310e+002
3.124329e+003,3.697082e+002
3.126257e+003,3.739761e+002
3.128186e+003,3.702981e+002
3.130114e+003,3.655786e+002
3.132043e+003,3.624685e+002
3.133971e+003,3.604700e+002
3.135900e+003,3.604630e+002
3.137828e+003,3.578724e+002
3.139757e+003,3.509831e+002
3.141685e+003,3.546645e+002
3.143614e+003,3.711003e+002
3.145542e+003,3.733631e+002
3.147470e+003,3.644726e+002
3.149399e+003,3.658510e+002
3.151327e+003,3.718929e+002
3.153256e+003,3.745318e+002
3.155184e+003,3.709829e+002
3.157113e+003,3.483203e+002
3.159041e+003,3.307618e+002
3.160970e+003,3.405132e+002
3.162898e+003,3.496579e+002
3.164827e+003,3.440543e+002
3.166755e+003,3.384512e+002
3.168684e+003,3.353557e+002
3.170612e+003,3.332402e+002
3.172541e+003,3.321987e+002
3.174469e+003,3.312839e+002
3.176397e+003,3.305327e+002
3.178326e+003,3.317773e+002
3.180254e+003,3.331129e+002
3.182183e+003,3.268124e+002
3.184111e+003,3.191684e+002
3.186040e+003,3.215000e+002
3.187968e+003,3.262323e+002
3.189897e+003,3.265681e+002
3.191825e+003,3.278431e+002
3.193754e+003,3.378485e+002
3.195682e+003,3.394476e+002
3.197611e+003,3.261890e+002
3.199539e+003,3.172551e+002
3.201468e+003,3.161065e+002
3.203396e+003,3.148496e+002
3.205324e+003,3.130622e+002
3.207253e+003,3.107693e+002
3.209181e+003,3.072511e+002
3.211110e+003,2.964498e+002
3.213038e+003,2.872026e+002
3.214967e+003,2.971985e+002
3.216895e+003,3.103582e+002
3.218824e+003,3.134929e+002
3.220752e+003,3.163068e+002
3.222681e+003,3.232389e+002
3.224609e+003,3.328568e+002
3.226538e+003,3.488489e+002
3.228466e+003,3.433925e+002
3.230395e+003,3.093633e+002
3.232323e+003,3.062457e+002
3.234251e+003,3.300110e+002
3.236180e+003,3.261640e+002
3.238108e+003,3.088676e+002
3.240037e+003,3.067425e+002
3.241965e+003,3.111457e+002
3.243894e+003,3.154255e+002
3.245822e+003,3.169018e+002
3.247751e+003,3.117363e+002
3.249679e+003,3.086872e+002
3.251608e+003,3.150289e+002
3.253536e+003,3.134315e+002
3.255465e+003,3.013827e+002
3.257393e+003,2.973410e+002
3.259322e+003,3.021566e+002
3.261250e+003,3.062947e+002
3.263178e+003,3.087404e+002
3.265107e+003,3.034280e+002
3.267035e+003,2.977983e+002
3.268964e+003,3.041378e+002
3.270892e+003,3.091328e+002
3.272821e+003,3.027775e+002
3.274749e+003,2.944286e+002
3.276678e+003,2.844073e+002
3.278606e+003,2.810237e+002
3.280535e+003,2.872479e+002
3.282463e+003,2.887321e+002
3.284392e+003,2.858529e+002
3.286320e+003,2.876428e+002
3.288249e+003,2.896975e+002
3.290177e+003,2.737787e+002
3.292105e+003,2.582669e+002
3.294034e+003,2.658441e+002
3.295962e+003,2.773302e+002
3.297891e+003,2.830415e+002
3.299819e+003,2.853006e+002
3.301748e+003,2.835750e+002
3.303676e+003,2.841771e+002
3.305605e+003,2.889358e+002
3.307533e+003,2.907015e+002
3.309462e+003,2.893085e+002
3.311390e+003,2.807466e+002
3.313319e+003,2.710508e+002
3.315247e+003,2.708222e+002
3.317176e+003,2.750048e+002
3.319104e+003,2.819848e+002
3.321032e+003,2.863195e+002
3.322961e+003,2.828219e+002
3.324889e+003,2.826277e+002
3.326818e+003,2.885737e+002
3.328746e+003,2.850420e+002
3.330675e+003,2.724677e+002
3.332603e+003,2.790975e+002
3.334532e+003,2.953007e+002
3.336460e+003,2.897267e+002
3.338389e+003,2.791118e+002
3.340317e+003,2.819420e+002
3.342246e+003,2.861834e+002
3.344174e+003,2.862270e+002
3.346103e+003,2.836696e+002
3.348031e+003,2.769005e+002
3.349959e+003,2.779220e+002
3.351888e+003,2.881396e+002
3.353816e+003,2.946477e+002
3.355745e+003,2.963582e+002
3.357673e+003,2.875491e+002
3.359602e+003,2.766205e+002
3.361530e+003,2.747895e+002
3.363459e+003,2.759794e+002
3.365387e+003,2.788765e+002
3.367316e+003,2.794986e+002
3.369244e+003,2.761380e+002
3.371173e+003,2.723520e+002
3.373101e+003,2.686637e+002
3.375030e+003,2.744227e+002
3.376958e+003,2.839766e+002
3.378886e+003,2.711525e+002
3.380815e+003,2.559880e+002
3.382743e+003,2.654996e+002
3.384672e+003,2.763171e+002
3.386600e+003,2.755880e+002
3.388529e+003,2.687708e+002
3.390457e+003,2.531626e+002
3.392386e+003,2.552130e+002
3.394314e+003,2.768534e+002
3.396243e+003,2.784072e+002
3.398171e+003,2.704406e+002
3.400100e+003,2.831195e+002
3.402028e+003,2.971159e+002
3.403957e+003,2.880492e+002
3.405885e+003,2.774704e+002
3.407813e+003,2.722381e+002
3.409742e+003,2.742471e+002
3.411670e+003,2.863590e+002
3.413599e+003,2.868595e+002
3.415527e+003,2.774783e+002
3.417456e+003,2.739902e+002
3.419384e+003,2.753170e+002
3.421313e+003,2.807250e+002
3.423241e+003,2.877050e+002
3.425170e+003,3.005798e+002
3.427098e+003,3.011318e+002
3.429027e+003,2.766873e+002
3.430955e+003,2.751168e+002
3.432884e+003,3.024376e+002
3.434812e+003,3.040383e+002
3.436740e+003,2.879836e+002
3.438669e+003,2.855024e+002
3.440597e+003,2.874713e+002
3.442526e+003,2.861559e+002
3.444454e+003,2.816338e+002
3.446383e+003,2.712758e+002
3.448311e+003,2.673333e+002
3.450240e+003,2.742714e+002
3.452168e+003,2.788398e+002
3.454097e+003,2.815417e+002
3.456025e+003,2.902220e+002
3.457954e+003,2.984348e+002
3.459882e+003,2.952541e+002
3.461811e+003,2.887813e+002
3.463739e+003,2.816714e+002
3.465667e+003,2.790567e+002
3.467596e+003,2.853349e+002
3.469524e+003,2.900340e+002
3.471453e+003,2.922047e+002
3.473381e+003,2.811363e+002
3.475310e+003,2.664478e+002
3.477238e+003,2.691234e+002
3.479167e+003,2.765505e+002
3.481095e+003,2.826940e+002
3.483024e+003,2.832719e+002
3.484952e+003,2.734932e+002
3.486881e+003,2.738960e+002
3.488809e+003,2.847231e+002
3.490738e+003,2.827102e+002
3.492666e+003,2.754621e+002
3.494594e+003,2.887427e+002
3.496523e+003,2.988504e+002
3.498451e+003,2.795655e+002
3.500380e+003,2.650817e+002
3.502308e+003,2.652742e+002
3.504237e+003,2.656843e+002
3.506165e+003,2.646571e+002
3.508094e+003,2.809732e+002
3.510022e+003,3.022471e+002
3.511951e+003,2.959348e+002
3.513879e+003,2.819235e+002
3.515808e+003,2.726506e+002
3.517736e+003,2.697805e+002
3.519665e+003,2.746795e+002
3.521593e+003,2.820179e+002
3.523521e+003,2.911159e+002
3.525450e+003,2.922177e+002
3.527378e+003,2.883951e+002
3.529307e+003,2.849055e+002
3.531235e+003,2.817779e+002
3.533164e+003,2.787654e+002
3.535092e+003,2.767328e+002
3.537021e+003,2.753602e+002
3.538949e+003,2.791105e+002
3.540878e+003,2.869700e+002
3.542806e+003,2.882488e+002
3.544735e+003,2.856090e+002
3.546663e+003,2.807431e+002
3.548592e+003,2.782299e+002
3.550520e+003,2.841861e+002
3.552448e+003,2.816614e+002
3.554377e+003,2.628911e+002
3.556305e+003,2.578037e+002
3.558234e+003,2.660588e+002
3.560162e+003,2.888646e+002
3.562091e+003,3.081747e+002
3.564019e+003,2.950533e+002
3.565948e+003,2.801057e+002
3.567876e+003,2.740197e+002
3.569805e+003,2.796440e+002
3.571733e+003,2.965735e+002
3.573662e+003,2.954330e+002
3.575590e+003,2.840566e+002
3.577519e+003,2.852415e+002
3.579447e+003,2.881521e+002
3.581376e+003,2.829345e+002
3.583304e+003,2.789863e+002
3.585233e+003,2.796595e+002
3.587161e+003,2.745968e+002
3.589090e+003,2.655803e+002
3.591018e+003,2.756332e+002
3.592947e+003,2.917461e+002
3.594875e+003,2.993782e+002
3.596803e+003,2.948345e+002
3.598732e+003,2.631761e+002
3.600660e+003,2.494751e+002
3.602589e+003,2.583105e+002
3.604517e+003,2.633808e+002
3.606446e+003,2.594131e+002
3.608374e+003,2.157912e+002
3.610303e+003,1.819212e+002
3.612231e+003,2.080753e+002
3.614160e+003,2.400636e+002
3.616088e+003,2.675089e+002
3.618017e+003,2.734360e+002
3.619945e+003,2.618590e+002
3.621874e+003,2.714629e+002
3.623802e+003,2.848822e+002
3.625730e+003,2.780025e+002
3.627659e+003,2.712881e+002
3.629587e+003,2.750352e+002
3.631516e+003,2.734172e+002
3.633444e+003,2.647150e+002
3.635373e+003,2.708712e+002
3.637301e+003,2.840732e+002
3.639230e+003,2.924331e+002
3.641158e+003,2.932943e+002
3.643087e+003,2.788887e+002
3.645015e+003,2.687882e+002
3.646944e+003,2.657642e+002
3.648872e+003,2.700688e+002
3.650801e+003,2.777738e+002
3.652729e+003,2.756842e+002
3.654657e+003,2.706018e+002
3.656586e+003,2.643550e+002
3.658514e+003,2.653926e+002
3.660443e+003,2.766459e+002
3.662371e+003,2.808004e+002
3.664300e+003,2.788986e+002
3.666228e+003,2.792643e+002
3.668157e+003,2.817086e+002
3.670085e+003,2.899297e+002
3.672014e+003,2.913306e+002
3.673942e+003,2.811689e+002
3.675871e+003,2.774683e+002
3.677799e+003,2.792612e+002
3.679728e+003,2.571567e+002
3.681656e+003,2.386670e+002
3.683584e+003,2.680981e+002
3.685513e+003,2.889171e+002
3.687441e+003,2.800835e+002
3.689370e+003,2.695271e+002
3.691298e+003,2.612421e+002
3.693227e+003,2.677399e+002
3.695155e+003,2.788299e+002
3.697084e+003,2.811896e+002
3.699012e+003,2.818412e+002
3.700941e+003,2.842018e+002
3.702869e+003,2.819076e+002
3.704798e+003,2.751163e+002
3.706726e+003,2.781254e+002
3.708655e+003,2.834947e+002
3.710583e+003,2.813865e+002
3.712511e+003,2.751236e+002
3.714440e+003,2.614475e+002
3.716368e+003,2.698846e+002
3.718297e+003,2.996881e+002
3.720225e+003,2.849525e+002
3.722154e+003,2.577944e+002
3.724082e+003,2.674691e+002
3.726011e+003,2.758313e+002
3.727939e+003,2.657646e+002
3.729868e+003,2.553174e+002
3.731796e+003,2.477626e+002
3.733725e+003,2.633299e+002
3.735653e+003,2.793772e+002
3.737582e+003,2.559879e+002
3.739510e+003,2.443911e+002
3.741438e+003,2.694772e+002
3.743367e+003,2.829480e+002
3.745295e+003,2.818079e+002
3.747224e+003,2.710064e+002
3.749152e+003,2.608151e+002
3.751081e+003,2.636568e+002
3.753009e+003,2.687042e+002
3.754938e+003,2.728246e+002
3.756866e+003,2.775600e+002
3.758795e+003,2.815166e+002
3.760723e+003,2.759008e+002
3.762652e+003,2.701072e+002
3.764580e+003,2.746631e+002
3.766509e+003,2.765337e+002
3.768437e+003,2.720727e+002
3.770365e+003,2.738166e+002
3.772294e+003,2.783619e+002
3.774222e+003,2.701551e+002
3.776151e+003,2.647098e+002
3.778079e+003,2.769175e+002
3.780008e+003,2.833845e+002
3.781936e+003,2.806593e+002
3.783865e+003,2.760934e+002
3.785793e+003,2.715201e+002
3.787722e+003,2.728220e+002
3.789650e+003,2.698514e+002
3.791579e+003,2.514617e+002
3.793507e+003,2.496918e+002
3.795436e+003,2.652708e+002
3.797364e+003,2.812118e+002
3.799292e+003,2.903344e+002
3.801221e+003,2.784199e+002
3.803149e+003,2.626884e+002
3.805078e+003,2.445674e+002
3.807006e+003,2.487525e+002
3.808935e+003,2.680160e+002
3.810863e+003,2.681103e+002
3.812792e+003,2.633294e+002
3.814720e+003,2.673040e+002
3.816649e+003,2.660661e+002
3.818577e+003,2.544324e+002
3.820506e+003,2.584312e+002
3.822434e+003,2.684575e+002
3.824363e+003,2.611799e+002
3.826291e+003,2.571397e+002
3.828219e+003,2.684091e+002
3.830148e+003,2.772546e+002
3.832076e+003,2.811779e+002
3.834005e+003,2.755512e+002
3.835933e+003,2.664643e+002
3.837862e+003,2.575001e+002
3.839790e+003,2.563588e+002
3.841719e+003,2.654704e+002
3.843647e+003,2.675551e+002
3.845576e+003,2.631571e+002
3.847504e+003,2.488085e+002
3.849433e+003,2.421972e+002
3.851361e+003,2.670030e+002
3.853290e+003,2.691092e+002
3.855218e+003,2.476710e+002
3.857146e+003,2.511718e+002
3.859075e+003,2.675613e+002
3.861003e+003,2.858329e+002
3.862932e+003,2.938148e+002
3.864860e+003,2.842823e+002
3.866789e+003,2.771430e+002
3.868717e+003,2.718740e+002
3.870646e+003,2.614800e+002
3.872574e+003,2.574380e+002
3.874503e+003,2.707996e+002
3.876431e+003,2.741597e+002
3.878360e+003,2.654151e+002
3.880288e+003,2.625323e+002
3.882217e+003,2.645432e+002
3.884145e+003,2.766024e+002
3.886073e+003,2.795471e+002
3.888002e+003,2.660218e+002
3.889930e+003,2.562985e+002
3.891859e+003,2.509186e+002
3.893787e+003,2.508282e+002
3.895716e+003,2.507492e+002
3.897644e+003,2.456440e+002
3.899573e+003,2.546094e+002
3.901501e+003,2.749175e+002
3.903430e+003,2.593438e+002
3.905358e+003,2.412967e+002
3.907287e+003,2.570038e+002
3.909215e+003,2.735356e+002
3.911144e+003,2.847071e+002
3.913072e+003,2.793128e+002
3.915000e+003,2.665271e+002
3.916929e+003,2.609249e+002
3.918857e+003,2.577188e+002
3.920786e+003,2.559878e+002
3.922714e+003,2.509289e+002
3.924643e+003,2.458662e+002
3.926571e+003,2.540701e+002
3.928500e+003,2.625996e+002
3.930428e+003,2.642607e+002
3.932357e+003,2.613965e+002
3.934285e+003,2.553335e+002
3.936214e+003,2.521417e+002
3.938142e+003,2.505675e+002
3.940071e+003,2.485549e+002
3.941999e+003,2.504058e+002
3.943927e+003,2.575225e+002
3.945856e+003,2.598780e+002
3.947784e+003,2.616581e+002
3.949713e+003,2.736078e+002
3.951641e+003,2.766432e+002
3.953570e+003,2.650558e+002
3.955498e+003,2.570150e+002
3.957427e+003,2.530504e+002
3.959355e+003,2.519947e+002
3.961284e+003,2.539529e+002
3.963212e+003,2.615069e+002
3.965141e+003,2.621582e+002
3.967069e+003,2.580663e+002
3.968998e+003,2.624626e+002
3.970926e+003,2.668600e+002
3.972854e+003,2.647679e+002
3.974783e+003,2.616376e+002
3.976711e+003,2.596720e+002
3.978640e+003,2.769500e+002
3.980568e+003,2.912463e+002
3.982497e+003,2.775748e+002
3.984425e+003,2.672245e+002
3.986354e+003,2.662909e+002
3.988282e+003,2.567352e+002
3.990211e+003,2.500142e+002
3.992139e+003,2.691429e+002
3.994068e+003,2.739091e+002
3.995996e+003,2.553769e+002
3.997925e+003,2.472955e+002
3.999853e+003,2.482340e+002
4.001781e+003,2.584697e+002
4.003710e+003,2.640353e+002
4.005638e+003,2.607325e+002
4.007567e+003,2.525493e+002
4.009495e+003,2.447662e+002
4.011424e+003,2.508177e+002
4.013352e+003,2.566188e+002
4.015281e+003,2.556990e+002
4.017209e+003,2.530403e+002
4.019138e+003,2.497991e+002
4.021066e+003,2.491127e+002
4.022995e+003,2.482772e+002
4.024923e+003,2.453928e+002
4.026852e+003,2.490828e+002
4.028780e+003,2.567200e+002
4.030708e+003,2.572921e+002
4.032637e+003,2.568192e+002
4.034565e+003,2.590189e+002
4.036494e+003,2.559844e+002
4.038422e+003,2.507130e+002
4.040351e+003,2.643163e+002
4.042279e+003,2.722338e+002
4.044208e+003,2.499113e+002
4.046136e+003,2.444834e+002
4.048065e+003,2.528663e+002
4.049993e+003,2.528984e+002
4.051922e+003,2.467053e+002
4.053850e+003,2.332938e+002
4.055779e+003,2.288872e+002
4.057707e+003,2.325193e+002
4.059635e+003,2.342480e+002
4.061564e+003,2.317759e+002
4.063492e+003,2.203458e+002
4.065421e+003,2.199780e+002
4.067349e+003,2.308943e+002
4.069278e+003,2.461269e+002
4.071206e+003,2.597207e+002
4.073135e+003,2.699978e+002
4.075063e+003,2.666798e+002
4.076992e+003,2.533978e+002
4.078920e+003,2.510543e+002
4.080849e+003,2.510793e+002
4.082777e+003,2.481454e+002
4.084706e+003,2.438409e+002
4.086634e+003,2.395369e+002
4.088563e+003,2.389685e+002
4.090491e+003,2.430306e+002
4.092419e+003,2.544610e+002
4.094348e+003,2.531776e+002
4.096276e+003,2.429357e+002
4.098205e+003,2.463596e+002
4.100133e+003,2.484767e+002
4.102062e+003,2.388641e+002
4.103990e+003,2.387039e+002
4.105919e+003,2.445454e+002
4.107847e+003,2.388741e+002
4.109776e+003,2.347557e+002
4.111704e+003,2.431314e+002
4.113633e+003,2.370308e+002
4.115561e+003,2.277567e+002
4.117490e+003,2.485574e+002
4.119418e+003,2.669383e+002
4.121347e+003,2.709978e+002
4.123275e+003,2.581895e+002
4.125204e+003,2.401871e+002
4.127132e+003,2.394331e+002
4.129061e+003,2.414664e+002
4.130989e+003,2.418853e+002
4.132917e+003,2.430978e+002
4.134846e+003,2.440028e+002
4.136774e+003,2.422749e+002
4.138703e+003,2.402802e+002
4.140631e+003,2.384263e+002
4.142560e+003,2.472886e+002
4.144488e+003,2.560805e+002
4.146417e+003,2.498985e+002
4.148345e+003,2.448974e+002
4.150273e+003,2.439952e+002
4.152202e+003,2.508149e+002
4.154130e+003,2.545607e+002
4.156059e+003,2.387645e+002
4.157987e+003,2.356106e+002
4.159916e+003,2.452478e+002
4.161844e+003,2.500812e+002
4.163773e+003,2.506686e+002
4.165701e+003,2.449451e+002
4.167630e+003,2.461101e+002
4.169558e+003,2.494794e+002
4.171487e+003,2.335418e+002
4.173415e+003,2.282971e+002
4.175344e+003,2.483981e+002
4.177272e+003,2.438064e+002
4.179201e+003,2.286440e+002
4.181129e+003,2.375338e+002
4.183058e+003,2.425674e+002
4.184986e+003,2.371465e+002
4.186915e+003,2.510123e+002
4.188843e+003,2.642498e+002
4.190771e+003,2.464567e+002
4.192700e+003,2.405352e+002
4.194628e+003,2.517638e+002
4.196557e+003,2.533783e+002
4.198485e+003,2.483226e+002
4.200414e+003,2.353368e+002
4.202342e+003,2.354045e+002
4.204271e+003,2.457075e+002
4.206199e+003,2.473716e+002
4.208127e+003,2.446322e+002
4.210056e+003,2.383326e+002
4.211984e+003,2.310421e+002
4.213913e+003,2.267873e+002
4.215841e+003,2.388912e+002
4.217770e+003,2.447271e+002
4.219698e+003,2.365661e+002
4.221627e+003,2.444771e+002
4.223555e+003,2.543722e+002
4.225484e+003,2.488932e+002
4.227412e+003,2.418469e+002
4.229341e+003,2.362574e+002
4.231269e+003,2.419686e+002
4.233198e+003,2.487027e+002
4.235126e+003,2.492796e+002
4.237055e+003,2.490899e+002
4.238983e+003,2.484739e+002
4.240912e+003,2.461090e+002
4.242840e+003,2.480033e+002
4.244769e+003,2.573015e+002
4.246697e+003,2.596814e+002
4.248625e+003,2.532876e+002
4.250554e+003,2.383493e+002
