1.159199e+002,8.794483e+002
1.178484e+002,1.005361e+003
1.197769e+002,1.104447e+003
1.217053e+002,1.175079e+003
1.236338e+002,1.204168e+003
1.255623e+002,1.162000e+003
1.274907e+002,1.095178e+003
1.294192e+002,1.045687e+003
1.313477e+002,1.027672e+003
1.332761e+002,1.011146e+003
1.352046e+002,9.938869e+002
1.371331e+002,9.782125e+002
1.390615e+002,9.375009e+002
1.409900e+002,8.440509e+002
1.429185e+002,7.231974e+002
1.448469e+002,6.207968e+002
1.467754e+002,5.449739e+002
1.487039e+002,4.810463e+002
1.506323e+002,4.247466e+002
1.525608e+002,3.747161e+002
1.544893e+002,3.359550e+002
1.564177e+002,3.126662e+002
1.583462e+002,3.020170e+002
1.602747e+002,2.896272e+002
1.622031e+002,2.747704e+002
1.641316e+002,2.601055e+002
1.660601e+002,2.471202e+002
1.679885e+002,2.363915e+002
1.699170e+002,2.258809e+002
1.718455e+002,2.143654e+002
1.737739e+002,2.018521e+002
1.757024e+002,1.916225e+002
1.776309e+002,1.847870e+002
1.795593e+002,1.793312e+002
1.814878e+002,1.735759e+002
1.834163e+002,1.679166e+002
1.853447e+002,1.615541e+002
1.872732e+002,1.533658e+002
1.892017e+002,1.436036e+002
1.911301e+002,1.361849e+002
1.930586e+002,1.311975e+002
1.949871e+002,1.288095e+002
1.969155e+002,1.301626e+002
1.988440e+002,1.380578e+002
2.007725e+002,1.464671e+002
2.027009e+002,1.558258e+002
2.046294e+002,1.673888e+002
2.065579e+002,1.706913e+002
2.084864e+002,1.611635e+002
2.104148e+002,1.429866e+002
2.123433e+002,1.251096e+002
2.142718e+002,1.054453e+002
2.162002e+002,8.830722e+001
2.181287e+002,7.556602e+001
2.200572e+002,6.909650e+001
2.219856e+002,6.255287e+001
2.239141e+002,5.402047e+001
2.258426e+002,4.516562e+001
2.277710e+002,3.961712e+001
2.296995e+002,3.984124e+001
2.316280e+002,4.089244e+001
2.335564e+002,4.045118e+001
2.354849e+002,3.705254e+001
2.374134e+002,3.407106e+001
2.393418e+002,3.130365e+001
2.412703e+002,2.897093e+001
2.431988e+002,2.751004e+001
2.451272e+002,2.832872e+001
2.470557e+002,2.897241e+001
2.489842e+002,2.808237e+001
2.509126e+002,2.472801e+001
2.528411e+002,2.175968e+001
2.547696e+002,1.944353e+001
2.566980e+002,1.776383e+001
2.586265e+002,1.687281e+001
2.605550e+002,1.789374e+001
2.624834e+002,1.891799e+001
2.644119e+002,1.883214e+001
2.663404e+002,1.744503e+001
2.682688e+002,1.597353e+001
2.701973e+002,1.440107e+001
2.721258e+002,1.283347e+001
2.740542e+002,1.199958e+001
2.759827e+002,1.170147e+001
2.779112e+002,1.219084e+001
2.798396e+002,1.419014e+001
2.817681e+002,1.814505e+001
2.836966e+002,2.093552e+001
2.856250e+002,2.132636e+001
2.875535e+002,1.989838e+001
2.894820e+002,1.890154e+001
2.914104e+002,1.699263e+001
2.933389e+002,1.654641e+001
2.952674e+002,1.905472e+001
2.971958e+002,2.508248e+001
2.991243e+002,3.105431e+001
3.010528e+002,3.679393e+001
3.029813e+002,4.206370e+001
3.049097e+002,4.626241e+001
3.068382e+002,4.997358e+001
3.087667e+002,5.197916e+001
3.106951e+002,5.167697e+001
3.126236e+002,4.844955e+001
3.145521e+002,4.470648e+001
3.164805e+002,4.016131e+001
3.184090e+002,3.539339e+001
3.203375e+002,3.147731e+001
3.222659e+002,2.833925e+001
3.241944e+002,2.621128e+001
3.261229e+002,2.496477e+001
3.280513e+002,2.455239e+001
3.299798e+002,2.542819e+001
3.319083e+002,2.810816e+001
3.338367e+002,3.188385e+001
3.357652e+002,3.546181e+001
3.376937e+002,3.769865e+001
3.396221e+002,4.171703e+001
3.415506e+002,4.945259e+001
3.434791e+002,6.226410e+001
3.454075e+002,7.138508e+001
3.473360e+002,7.390114e+001
3.492645e+002,7.439603e+001
3.511929e+002,7.740114e+001
3.531214e+002,8.576624e+001
3.550499e+002,9.108444e+001
3.569783e+002,9.105598e+001
3.589068e+002,8.553508e+001
3.608353e+002,7.898918e+001
3.627637e+002,7.018610e+001
3.646922e+002,6.135232e+001
3.666207e+002,5.378313e+001
3.685491e+002,4.800795e+001
3.704776e+002,4.248801e+001
3.724061e+002,3.662761e+001
3.743345e+002,3.080504e+001
3.762630e+002,2.615581e+001
3.781915e+002,2.291334e+001
3.801199e+002,2.062049e+001
3.820484e+002,1.908981e+001
3.839769e+002,1.881088e+001
3.859053e+002,1.809595e+001
3.878338e+002,1.589136e+001
3.897623e+002,1.348195e+001
3.916907e+002,1.287754e+001
3.936192e+002,1.486533e+001
3.955477e+002,1.731266e+001
3.974761e+002,1.979124e+001
3.994046e+002,2.250229e+001
4.013331e+002,2.376215e+001
4.032615e+002,2.270353e+001
4.051900e+002,2.086002e+001
4.071185e+002,1.952814e+001
4.090469e+002,1.892047e+001
4.109754e+002,1.819853e+001
4.129039e+002,1.667578e+001
4.148323e+002,1.464943e+001
4.167608e+002,1.404210e+001
4.186893e+002,1.617183e+001
4.206177e+002,1.842364e+001
4.225462e+002,1.976063e+001
4.244747e+002,2.023527e+001
4.264032e+002,1.971093e+001
4.283316e+002,1.670325e+001
4.302601e+002,1.307118e+001
4.321886e+002,1.221617e+001
4.341170e+002,1.563641e+001
4.360455e+002,1.901555e+001
4.379740e+002,2.065810e+001
4.399024e+002,2.076601e+001
4.418309e+002,2.152952e+001
4.437594e+002,2.217473e+001
4.456878e+002,2.406602e+001
4.476163e+002,2.854813e+001
4.495448e+002,3.579392e+001
4.514732e+002,4.422431e+001
4.534017e+002,5.602459e+001
4.553302e+002,6.885163e+001
4.572586e+002,7.700043e+001
4.591871e+002,7.960937e+001
4.611156e+002,7.829839e+001
4.630440e+002,7.135322e+001
4.649725e+002,5.895165e+001
4.669010e+002,4.840098e+001
4.688294e+002,4.153287e+001
4.707579e+002,3.639711e+001
4.726864e+002,3.145838e+001
4.746148e+002,2.564239e+001
4.765433e+002,2.142711e+001
4.784718e+002,1.947714e+001
4.804002e+002,1.940432e+001
4.823287e+002,1.997848e+001
4.842572e+002,2.235796e+001
4.861856e+002,2.382496e+001
4.881141e+002,2.278747e+001
4.900426e+002,1.787129e+001
4.919710e+002,1.540986e+001
4.938995e+002,1.690389e+001
4.958280e+002,1.990370e+001
4.977564e+002,2.219225e+001
4.996849e+002,2.352113e+001
5.016134e+002,2.489459e+001
5.035418e+002,2.655832e+001
5.054703e+002,2.846001e+001
5.073988e+002,3.043118e+001
5.093272e+002,3.166741e+001
5.112557e+002,3.368989e+001
5.131842e+002,3.870411e+001
5.151127e+002,4.652658e+001
5.170411e+002,5.009286e+001
5.189696e+002,4.479547e+001
5.208981e+002,3.690491e+001
5.228265e+002,3.119119e+001
5.247550e+002,2.832665e+001
5.266835e+002,2.623091e+001
5.286119e+002,2.508612e+001
5.305404e+002,2.450494e+001
5.324689e+002,2.379028e+001
5.343973e+002,2.260447e+001
5.363258e+002,2.164360e+001
5.382543e+002,2.124237e+001
5.401827e+002,2.145527e+001
5.421112e+002,2.137087e+001
5.440397e+002,2.145013e+001
5.459681e+002,2.078831e+001
5.478966e+002,1.831699e+001
5.498251e+002,1.261315e+001
5.517535e+002,1.002635e+001
5.536820e+002,1.329853e+001
5.556105e+002,1.920164e+001
5.575389e+002,2.245345e+001
5.594674e+002,2.201118e+001
5.613959e+002,2.159673e+001
5.633243e+002,2.299297e+001
5.652528e+002,2.559522e+001
5.671813e+002,2.659653e+001
5.691097e+002,2.481140e+001
5.710382e+002,2.231092e+001
5.729667e+002,1.904537e+001
5.748951e+002,1.480649e+001
5.768236e+002,1.303875e+001
5.787521e+002,1.533946e+001
5.806805e+002,1.962364e+001
5.826090e+002,2.380059e+001
5.845375e+002,2.576143e+001
5.864659e+002,3.210089e+001
5.883944e+002,4.438444e+001
5.903229e+002,6.116799e+001
5.922513e+002,8.149213e+001
5.941798e+002,1.134654e+002
5.961083e+002,1.331143e+002
5.980367e+002,1.248486e+002
5.999652e+002,9.214977e+001
6.018937e+002,7.322213e+001
6.038221e+002,6.615643e+001
6.057506e+002,7.353887e+001
6.076791e+002,1.097238e+002
6.096075e+002,1.750691e+002
6.115360e+002,2.140402e+002
6.134645e+002,2.075674e+002
6.153929e+002,1.786878e+002
6.173214e+002,1.423871e+002
6.192499e+002,8.737460e+001
6.211783e+002,4.739268e+001
6.231068e+002,3.027318e+001
6.250353e+002,2.718476e+001
6.269637e+002,2.468360e+001
6.288922e+002,2.274030e+001
6.308207e+002,2.135000e+001
6.327491e+002,2.077104e+001
6.346776e+002,2.078521e+001
6.366061e+002,2.053434e+001
6.385345e+002,1.946837e+001
6.404630e+002,1.866058e+001
6.423915e+002,1.872918e+001
6.443199e+002,1.953484e+001
6.462484e+002,1.976164e+001
6.481769e+002,1.852074e+001
6.501053e+002,1.747840e+001
6.520338e+002,1.749920e+001
6.539623e+002,1.885247e+001
6.558907e+002,2.062151e+001
6.578192e+002,2.294163e+001
6.597477e+002,2.553944e+001
6.616761e+002,2.783494e+001
6.636046e+002,2.940811e+001
6.655331e+002,3.253292e+001
6.674615e+002,3.926920e+001
6.693900e+002,4.744736e+001
6.713185e+002,5.434169e+001
6.732469e+002,6.325590e+001
6.751754e+002,6.665025e+001
6.771039e+002,6.018939e+001
6.790323e+002,4.732772e+001
6.809608e+002,3.766909e+001
6.828893e+002,3.166751e+001
6.848177e+002,2.825247e+001
6.867462e+002,2.795442e+001
6.886747e+002,3.056314e+001
6.906031e+002,3.142991e+001
6.925316e+002,2.924894e+001
6.944601e+002,2.664302e+001
6.963885e+002,2.417713e+001
6.983170e+002,2.193169e+001
7.002455e+002,2.120751e+001
7.021740e+002,2.396160e+001
7.041024e+002,2.654676e+001
7.060309e+002,2.684369e+001
7.079594e+002,2.420881e+001
7.098878e+002,2.115446e+001
7.118163e+002,1.625877e+001
7.137448e+002,1.194618e+001
7.156732e+002,1.096692e+001
7.176017e+002,1.368332e+001
7.195302e+002,1.603216e+001
7.214586e+002,1.579622e+001
7.233871e+002,1.550653e+001
7.253156e+002,1.723295e+001
7.272440e+002,1.786945e+001
7.291725e+002,2.658984e+001
7.311010e+002,5.004556e+001
7.330294e+002,8.059300e+001
7.349579e+002,1.063936e+002
7.368864e+002,1.317041e+002
7.388149e+002,1.435230e+002
7.407433e+002,1.292370e+002
7.426718e+002,9.879550e+001
7.446003e+002,7.311609e+001
7.465287e+002,5.298642e+001
7.484572e+002,3.761017e+001
7.503857e+002,2.788859e+001
7.523141e+002,2.333402e+001
7.542426e+002,2.091550e+001
7.561711e+002,2.161247e+001
7.580995e+002,2.284367e+001
7.600280e+002,2.330411e+001
7.619565e+002,2.327729e+001
7.638849e+002,2.447548e+001
7.658134e+002,2.680738e+001
7.677419e+002,3.065835e+001
7.696703e+002,3.673319e+001
7.715988e+002,4.507481e+001
7.735273e+002,5.312762e+001
7.754557e+002,6.421314e+001
7.773842e+002,7.129629e+001
7.793127e+002,6.931636e+001
7.812411e+002,5.903488e+001
7.831696e+002,5.027181e+001
7.850981e+002,4.389575e+001
7.870266e+002,3.945824e+001
7.889550e+002,3.641777e+001
7.908835e+002,3.465262e+001
7.928120e+002,3.677687e+001
7.947404e+002,4.122286e+001
7.966689e+002,5.106308e+001
7.985974e+002,6.520065e+001
8.005258e+002,8.311654e+001
8.024543e+002,1.167175e+002
8.043828e+002,1.820141e+002
8.063112e+002,2.529352e+002
8.082397e+002,3.195930e+002
8.101682e+002,3.867840e+002
8.120966e+002,4.270313e+002
8.140251e+002,4.196079e+002
8.159536e+002,4.010115e+002
8.178820e+002,3.979633e+002
8.198105e+002,4.110760e+002
8.217390e+002,4.166855e+002
8.236674e+002,4.194706e+002
8.255959e+002,4.063189e+002
8.275244e+002,3.644187e+002
8.294528e+002,2.760548e+002
8.313813e+002,2.032062e+002
8.333098e+002,1.440897e+002
8.352382e+002,1.003655e+002
8.371667e+002,7.722255e+001
8.390952e+002,7.434424e+001
8.410236e+002,7.475506e+001
8.429521e+002,7.987204e+001
8.448806e+002,8.358765e+001
8.468090e+002,8.142188e+001
8.487375e+002,7.067181e+001
8.506660e+002,6.081149e+001
8.525944e+002,5.185715e+001
8.545229e+002,4.384149e+001
8.564514e+002,3.655351e+001
8.583798e+002,2.984916e+001
8.603083e+002,2.539371e+001
8.622368e+002,2.489931e+001
8.641652e+002,2.559984e+001
8.660937e+002,2.537668e+001
8.680222e+002,2.364391e+001
8.699506e+002,2.380961e+001
8.718791e+002,2.876571e+001
8.738076e+002,3.337714e+001
8.757360e+002,3.376747e+001
8.776645e+002,2.930060e+001
8.795930e+002,2.593008e+001
8.815214e+002,2.358772e+001
8.834499e+002,2.291304e+001
8.853784e+002,2.522639e+001
8.873068e+002,3.062582e+001
8.892353e+002,3.355802e+001
8.911638e+002,2.953203e+001
8.930922e+002,2.622601e+001
8.950207e+002,2.695148e+001
8.969492e+002,3.209204e+001
8.988776e+002,3.968515e+001
9.008061e+002,5.473760e+001
9.027346e+002,6.744492e+001
9.046630e+002,7.310472e+001
9.065915e+002,7.264825e+001
9.085200e+002,6.760044e+001
9.104484e+002,5.397446e+001
9.123769e+002,4.125644e+001
9.143054e+002,3.324826e+001
9.162338e+002,2.974851e+001
9.181623e+002,2.703561e+001
9.200908e+002,2.470883e+001
9.220192e+002,2.345813e+001
9.239477e+002,2.418464e+001
9.258762e+002,2.629789e+001
9.278046e+002,2.761149e+001
9.297331e+002,2.756998e+001
9.316616e+002,2.758573e+001
9.335900e+002,2.755316e+001
9.355185e+002,2.793697e+001
9.374470e+002,3.025827e+001
9.393754e+002,3.731881e+001
9.413039e+002,4.266710e+001
9.432324e+002,4.558854e+001
9.451608e+002,4.616663e+001
9.470893e+002,4.395065e+001
9.490178e+002,3.750671e+001
9.509462e+002,3.262073e+001
9.528747e+002,3.154969e+001
9.548032e+002,3.238340e+001
9.567316e+002,3.292693e+001
9.586601e+002,3.285779e+001
9.605886e+002,3.359611e+001
9.625170e+002,3.522796e+001
9.644455e+002,3.779866e+001
9.663740e+002,4.091008e+001
9.683024e+002,4.300013e+001
9.702309e+002,5.025145e+001
9.721594e+002,5.838543e+001
9.740878e+002,7.509701e+001
9.760163e+002,1.053092e+002
9.779448e+002,1.482051e+002
9.798733e+002,2.037091e+002
9.818018e+002,2.608979e+002
9.837302e+002,3.454251e+002
9.856587e+002,4.623712e+002
9.875872e+002,6.107562e+002
9.895156e+002,8.106285e+002
9.914441e+002,1.210900e+003
9.933726e+002,1.494448e+003
9.953010e+002,1.548440e+003
9.972295e+002,1.399852e+003
9.991580e+002,1.161456e+003
1.001086e+003,7.617290e+002
1.003015e+003,4.217505e+002
1.004943e+003,2.357954e+002
1.006872e+003,1.519148e+002
1.008800e+003,9.997810e+001
1.010729e+003,8.728763e+001
1.012657e+003,8.907203e+001
1.014586e+003,9.975957e+001
1.016514e+003,1.215211e+002
1.018443e+003,1.587343e+002
1.020371e+003,2.205017e+002
1.022300e+003,2.756361e+002
1.024228e+003,3.410616e+002
1.026156e+003,3.856736e+002
1.028085e+003,3.805130e+002
1.030013e+003,3.305926e+002
1.031942e+003,2.722136e+002
1.033870e+003,1.968815e+002
1.035799e+003,1.307976e+002
1.037727e+003,8.576208e+001
1.039656e+003,6.088221e+001
1.041584e+003,4.247231e+001
1.043513e+003,3.181189e+001
1.045441e+003,2.632674e+001
1.047370e+003,2.910043e+001
1.049298e+003,3.637922e+001
1.051227e+003,3.914310e+001
1.053155e+003,3.597016e+001
1.055083e+003,3.298000e+001
1.057012e+003,3.169203e+001
1.058940e+003,3.128396e+001
1.060869e+003,3.093577e+001
1.062797e+003,3.060108e+001
1.064726e+003,3.059209e+001
1.066654e+003,3.192023e+001
1.068583e+003,3.272346e+001
1.070511e+003,3.170143e+001
1.072440e+003,2.863887e+001
1.074368e+003,2.609972e+001
1.076297e+003,2.265978e+001
1.078225e+003,2.125150e+001
1.080154e+003,2.473161e+001
1.082082e+003,3.099953e+001
1.084010e+003,3.408565e+001
1.085939e+003,3.326471e+001
1.087867e+003,3.122750e+001
1.089796e+003,2.700197e+001
1.091724e+003,2.289893e+001
1.093653e+003,2.191843e+001
1.095581e+003,2.501653e+001
1.097510e+003,2.815040e+001
1.099438e+003,3.101964e+001
1.101367e+003,3.362367e+001
1.103295e+003,3.585078e+001
1.105224e+003,3.765261e+001
1.107152e+003,3.977077e+001
1.109081e+003,4.094286e+001
1.111009e+003,4.383430e+001
1.112938e+003,5.122292e+001
1.114866e+003,6.086801e+001
1.116794e+003,6.781428e+001
1.118723e+003,7.198589e+001
1.120651e+003,7.315155e+001
1.122580e+003,6.965453e+001
1.124508e+003,6.390047e+001
1.126437e+003,5.777177e+001
1.128365e+003,5.038960e+001
1.130294e+003,4.562153e+001
1.132222e+003,4.168509e+001
1.134151e+003,4.200486e+001
1.136079e+003,4.870364e+001
1.138008e+003,6.187574e+001
1.139936e+003,7.928240e+001
1.141865e+003,1.043200e+002
1.143793e+003,1.283219e+002
1.145721e+003,1.550012e+002
1.147650e+003,1.760526e+002
1.149578e+003,1.769784e+002
1.151507e+003,1.524616e+002
1.153435e+003,1.311510e+002
1.155364e+003,1.222059e+002
1.157292e+003,1.171602e+002
1.159221e+003,1.108885e+002
1.161149e+003,1.030204e+002
1.163078e+003,9.714228e+001
1.165006e+003,8.772237e+001
1.166935e+003,8.652456e+001
1.168863e+003,9.974854e+001
1.170792e+003,1.238459e+002
1.172720e+003,1.509953e+002
1.174648e+003,1.869059e+002
1.176577e+003,2.110813e+002
1.178505e+003,2.185162e+002
1.180434e+003,2.126142e+002
1.182362e+003,1.917621e+002
1.184291e+003,1.567343e+002
1.186219e+003,1.295878e+002
1.188148e+003,1.070727e+002
1.190076e+003,1.027237e+002
1.192005e+003,1.192300e+002
1.193933e+003,1.569785e+002
1.195862e+003,2.184097e+002
1.197790e+003,3.261969e+002
1.199719e+003,4.220772e+002
1.201647e+003,5.200154e+002
1.203575e+003,5.907290e+002
1.205504e+003,6.029221e+002
1.207432e+003,5.492664e+002
1.209361e+003,4.798277e+002
1.211289e+003,3.753503e+002
1.213218e+003,2.791815e+002
1.215146e+003,2.098407e+002
1.217075e+003,1.617814e+002
1.219003e+003,1.249480e+002
1.220932e+003,1.008714e+002
1.222860e+003,8.139889e+001
1.224789e+003,6.517413e+001
1.226717e+003,5.226069e+001
1.228646e+003,4.338509e+001
1.230574e+003,3.885685e+001
1.232502e+003,3.512555e+001
1.234431e+003,3.214935e+001
1.236359e+003,2.995158e+001
1.238288e+003,2.858024e+001
1.240216e+003,2.801088e+001
1.242145e+003,2.830179e+001
1.244073e+003,2.984682e+001
1.246002e+003,3.125289e+001
1.247930e+003,3.250424e+001
1.249859e+003,3.353664e+001
1.251787e+003,3.472410e+001
1.253716e+003,3.576969e+001
1.255644e+003,3.487827e+001
1.257573e+003,3.050503e+001
1.259501e+003,2.739049e+001
1.261429e+003,2.840116e+001
1.263358e+003,3.098099e+001
1.265286e+003,3.199781e+001
1.267215e+003,3.089718e+001
1.269143e+003,3.176263e+001
1.271072e+003,3.670513e+001
1.273000e+003,4.198201e+001
1.274929e+003,4.479008e+001
1.276857e+003,4.675241e+001
1.278786e+003,5.333543e+001
1.280714e+003,6.948148e+001
1.282643e+003,8.320426e+001
1.284571e+003,9.349516e+001
1.286500e+003,1.019236e+002
1.288428e+003,1.056178e+002
1.290356e+003,1.060978e+002
1.292285e+003,1.213951e+002
1.294213e+003,1.585988e+002
1.296142e+003,1.983613e+002
1.298070e+003,2.509256e+002
1.299999e+003,2.920135e+002
1.301927e+003,2.880889e+002
1.303856e+003,2.357956e+002
1.305784e+003,1.931620e+002
1.307713e+003,1.716524e+002
1.309641e+003,1.581112e+002
1.311570e+003,1.504288e+002
1.313498e+003,1.458062e+002
1.315427e+003,1.357305e+002
1.317355e+003,1.132935e+002
1.319283e+003,1.008229e+002
1.321212e+003,1.049666e+002
1.323140e+003,1.143671e+002
1.325069e+003,1.236991e+002
1.326997e+003,1.327482e+002
1.328926e+003,1.391300e+002
1.330854e+003,1.436464e+002
1.332783e+003,1.445849e+002
1.334711e+003,1.411295e+002
1.336640e+003,1.343549e+002
1.338568e+003,1.225525e+002
1.340497e+003,1.065967e+002
1.342425e+003,9.871783e+001
1.344354e+003,1.061863e+002
1.346282e+003,1.099786e+002
1.348210e+003,9.812725e+001
1.350139e+003,8.094641e+001
1.352068e+003,7.058716e+001
1.353996e+003,6.744436e+001
1.355924e+003,6.506949e+001
1.357853e+003,6.310965e+001
1.359781e+003,6.104112e+001
1.361710e+003,5.885516e+001
1.363638e+003,5.638477e+001
1.365567e+003,5.300194e+001
1.367495e+003,4.750577e+001
1.369424e+003,4.449297e+001
1.371352e+003,4.621691e+001
1.373281e+003,4.818361e+001
1.375209e+003,4.837169e+001
1.377138e+003,4.719076e+001
1.379066e+003,4.584219e+001
1.380995e+003,4.350471e+001
1.382923e+003,4.259667e+001
1.384851e+003,4.326563e+001
1.386780e+003,4.539188e+001
1.388708e+003,4.778302e+001
1.390637e+003,5.153068e+001
1.392565e+003,5.965060e+001
1.394494e+003,7.052014e+001
1.396422e+003,9.080152e+001
1.398351e+003,1.365902e+002
1.400279e+003,1.792976e+002
1.402208e+003,2.011290e+002
1.404136e+003,2.037740e+002
1.406065e+003,1.881646e+002
1.407993e+003,1.468732e+002
1.409922e+003,1.099756e+002
1.411850e+003,8.641908e+001
1.413778e+003,7.027720e+001
1.415707e+003,5.775356e+001
1.417635e+003,4.896337e+001
1.419564e+003,4.467196e+001
1.421492e+003,4.417308e+001
1.423421e+003,4.987307e+001
1.425349e+003,6.775467e+001
1.427278e+003,8.696300e+001
1.429206e+003,9.812260e+001
1.431135e+003,1.013117e+002
1.433063e+003,1.064484e+002
1.434992e+003,1.195906e+002
1.436920e+003,1.261074e+002
1.438849e+003,1.228836e+002
1.440777e+003,1.136252e+002
1.442705e+003,9.876939e+001
1.444634e+003,7.891968e+001
1.446562e+003,6.520565e+001
1.448491e+003,5.977820e+001
1.450419e+003,5.618229e+001
1.452348e+003,5.399316e+001
1.454276e+003,5.262622e+001
1.456205e+003,5.169727e+001
1.458133e+003,5.119776e+001
1.460062e+003,5.099681e+001
1.461990e+003,5.075981e+001
1.463919e+003,5.171670e+001
1.465847e+003,5.549374e+001
1.467776e+003,5.947541e+001
1.469704e+003,6.108053e+001
1.471632e+003,6.128084e+001
1.473561e+003,6.356008e+001
1.475489e+003,6.846864e+001
1.477418e+003,7.421270e+001
1.479346e+003,8.167618e+001
1.481275e+003,8.836732e+001
1.483203e+003,9.365191e+001
1.485132e+003,9.695274e+001
1.487060e+003,9.583346e+001
1.488989e+003,8.916848e+001
1.490917e+003,8.167100e+001
1.492846e+003,7.347965e+001
1.494774e+003,6.560360e+001
1.496703e+003,5.752569e+001
1.498631e+003,5.024124e+001
1.500559e+003,4.713225e+001
1.502488e+003,4.990633e+001
1.504416e+003,5.195326e+001
1.506345e+003,5.119389e+001
1.508273e+003,5.142122e+001
1.510202e+003,5.497355e+001
1.512130e+003,6.023303e+001
1.514059e+003,6.377774e+001
1.515987e+003,6.394786e+001
1.517916e+003,6.768577e+001
1.519844e+003,8.066586e+001
1.521773e+003,8.984468e+001
1.523701e+003,8.923347e+001
1.525630e+003,8.378671e+001
1.527558e+003,7.981140e+001
1.529486e+003,7.757147e+001
1.531415e+003,7.403510e+001
1.533343e+003,6.668270e+001
1.535272e+003,6.145498e+001
1.537200e+003,6.105439e+001
1.539129e+003,6.208624e+001
1.541057e+003,6.144506e+001
1.542986e+003,5.939833e+001
1.544914e+003,5.827571e+001
1.546843e+003,5.871625e+001
1.548771e+003,5.849926e+001
1.550700e+003,5.641483e+001
1.552628e+003,5.428396e+001
1.554557e+003,5.329070e+001
1.556485e+003,5.310688e+001
1.558413e+003,5.250459e+001
1.560342e+003,5.107173e+001
1.562270e+003,5.187465e+001
1.564199e+003,5.613760e+001
1.566127e+003,6.171098e+001
1.568056e+003,6.292721e+001
1.569984e+003,6.761580e+001
1.571913e+003,8.839967e+001
1.573841e+003,1.244957e+002
1.575770e+003,1.589356e+002
1.577698e+003,1.978783e+002
1.579627e+003,2.164248e+002
1.581555e+003,1.872610e+002
1.583484e+003,1.501035e+002
1.585412e+003,1.300133e+002
1.587340e+003,1.282501e+002
1.589269e+003,1.563719e+002
1.591197e+003,2.264006e+002
1.593126e+003,2.785860e+002
1.595054e+003,2.913062e+002
1.596983e+003,2.923804e+002
1.598911e+003,2.998191e+002
1.600840e+003,3.048904e+002
1.602768e+003,2.885507e+002
1.604697e+003,2.492649e+002
1.606625e+003,2.076158e+002
1.608554e+003,1.594624e+002
1.610482e+003,1.213293e+002
1.612411e+003,1.009507e+002
1.614339e+003,9.104210e+001
1.616267e+003,8.792573e+001
1.618196e+003,9.072371e+001
1.620124e+003,9.195791e+001
1.622053e+003,9.185218e+001
1.623981e+003,8.914591e+001
1.625910e+003,8.097274e+001
1.627838e+003,7.293459e+001
1.629767e+003,6.800864e+001
1.631695e+003,6.482281e+001
1.633624e+003,6.047627e+001
1.635552e+003,5.453678e+001
1.637481e+003,5.082239e+001
1.639409e+003,5.082600e+001
1.641338e+003,5.103788e+001
1.643266e+003,5.125726e+001
1.645194e+003,5.077442e+001
1.647123e+003,4.860232e+001
1.649051e+003,4.510313e+001
1.650980e+003,4.245501e+001
1.652908e+003,4.108516e+001
1.654837e+003,3.924953e+001
1.656765e+003,3.528431e+001
1.658694e+003,3.261163e+001
1.660622e+003,3.307565e+001
1.662551e+003,3.505521e+001
1.664479e+003,3.686794e+001
1.666408e+003,3.858582e+001
1.668336e+003,3.902076e+001
1.670265e+003,3.773494e+001
1.672193e+003,3.609308e+001
1.674121e+003,3.377277e+001
1.676050e+003,3.171389e+001
1.677978e+003,3.003510e+001
1.679907e+003,2.906538e+001
1.681835e+003,2.996693e+001
1.683764e+003,3.356633e+001
1.685692e+003,3.478778e+001
1.687621e+003,3.208407e+001
1.689549e+003,2.918333e+001
1.691478e+003,2.571338e+001
1.693406e+003,2.342350e+001
1.695335e+003,2.482507e+001
1.697263e+003,2.837670e+001
1.699192e+003,2.853191e+001
1.701120e+003,2.376651e+001
1.703048e+003,2.120687e+001
1.704977e+003,2.299929e+001
1.706905e+003,2.458466e+001
1.708834e+003,2.395943e+001
1.710762e+003,2.340082e+001
1.712691e+003,2.608956e+001
1.714619e+003,3.085592e+001
1.716548e+003,3.079371e+001
1.718476e+003,2.339521e+001
1.720405e+003,1.964841e+001
1.722333e+003,2.445527e+001
1.724262e+003,2.768412e+001
1.726190e+003,2.446330e+001
1.728119e+003,1.984812e+001
1.730047e+003,1.883770e+001
1.731975e+003,2.093782e+001
1.733904e+003,2.221359e+001
1.735832e+003,2.203614e+001
1.737761e+003,2.330117e+001
1.739689e+003,2.977195e+001
1.741618e+003,3.289689e+001
1.743546e+003,2.618778e+001
1.745475e+003,1.783472e+001
1.747403e+003,1.695341e+001
1.749332e+003,2.222121e+001
1.751260e+003,2.290731e+001
1.753189e+003,1.704911e+001
1.755117e+003,1.505129e+001
1.757046e+003,2.181890e+001
1.758974e+003,2.719103e+001
1.760902e+003,2.656010e+001
1.762831e+003,2.377699e+001
1.764759e+003,2.178520e+001
1.766688e+003,2.055925e+001
1.768616e+003,1.998477e+001
1.770545e+003,2.007556e+001
1.772473e+003,2.082439e+001
1.774402e+003,2.310833e+001
1.776330e+003,2.440357e+001
1.778259e+003,2.218005e+001
1.780187e+003,1.999026e+001
1.782116e+003,2.138966e+001
1.784044e+003,2.493022e+001
1.785973e+003,2.666051e+001
1.787901e+003,2.645892e+001
1.789829e+003,2.512707e+001
1.791758e+003,2.198600e+001
1.793686e+003,1.959862e+001
1.795615e+003,1.917007e+001
1.797543e+003,1.944699e+001
1.799472e+003,1.950943e+001
1.801400e+003,1.966574e+001
1.803329e+003,2.082490e+001
1.805257e+003,2.293064e+001
1.807186e+003,2.378909e+001
1.809114e+003,2.274164e+001
1.811043e+003,2.178200e+001
1.812971e+003,2.158413e+001
1.814900e+003,2.147488e+001
1.816828e+003,2.077064e+001
1.818756e+003,2.011652e+001
1.820685e+003,2.086646e+001
1.822613e+003,2.271001e+001
1.824542e+003,2.284879e+001
1.826470e+003,2.023274e+001
1.828399e+003,1.938273e+001
1.830327e+003,2.276888e+001
1.832256e+003,2.569864e+001
1.834184e+003,2.654656e+001
1.836113e+003,2.615033e+001
1.838041e+003,2.470266e+001
1.839970e+003,2.268768e+001
1.841898e+003,2.186723e+001
1.843827e+003,2.242080e+001
1.845755e+003,2.358232e+001
1.847684e+003,2.671551e+001
1.849612e+003,2.845185e+001
1.851541e+003,2.760517e+001
1.853469e+003,2.577400e+001
1.855397e+003,2.350140e+001
1.857326e+003,2.107616e+001
1.859254e+003,1.862124e+001
1.861183e+003,1.612328e+001
1.863111e+003,1.582299e+001
1.865040e+003,1.954762e+001
1.866968e+003,2.145255e+001
1.868897e+003,1.955055e+001
1.870825e+003,1.793546e+001
1.872754e+003,1.770403e+001
1.874682e+003,1.835450e+001
1.876611e+003,2.001758e+001
1.878539e+003,2.214577e+001
1.880468e+003,2.291985e+001
1.882396e+003,2.222808e+001
1.884324e+003,2.221455e+001
1.886253e+003,2.344602e+001
1.888181e+003,2.410884e+001
1.890110e+003,2.353838e+001
1.892038e+003,2.263546e+001
1.893967e+003,2.109480e+001
1.895895e+003,2.004496e+001
1.897824e+003,2.076082e+001
1.899752e+003,2.291311e+001
1.901681e+003,2.623356e+001
1.903609e+003,3.094798e+001
1.905538e+003,3.189403e+001
1.907466e+003,2.667155e+001
1.909395e+003,2.229909e+001
1.911323e+003,2.098211e+001
1.913251e+003,2.096967e+001
1.915180e+003,2.176774e+001
1.917108e+003,2.300717e+001
1.919037e+003,2.455524e+001
1.920965e+003,2.620653e+001
1.922894e+003,2.649157e+001
1.924822e+003,2.461850e+001
1.926751e+003,2.443854e+001
1.928679e+003,2.877095e+001
1.930608e+003,3.079795e+001
1.932536e+003,2.677312e+001
1.934465e+003,2.301093e+001
1.936393e+003,2.399765e+001
1.938322e+003,2.669895e+001
1.940250e+003,2.700127e+001
1.942178e+003,2.522296e+001
1.944107e+003,2.345429e+001
1.946035e+003,2.114402e+001
1.947964e+003,2.146011e+001
1.949892e+003,2.715590e+001
1.951821e+003,3.025077e+001
1.953749e+003,2.589331e+001
1.955678e+003,2.235048e+001
1.957606e+003,2.549578e+001
1.959535e+003,2.997451e+001
1.961463e+003,2.904466e+001
1.963392e+003,2.460437e+001
1.965320e+003,2.270698e+001
1.967249e+003,2.351945e+001
1.969177e+003,2.487256e+001
1.971105e+003,2.691866e+001
1.973034e+003,2.823985e+001
1.974962e+003,2.822913e+001
1.976891e+003,2.778876e+001
1.978819e+003,2.696021e+001
1.980748e+003,2.621851e+001
1.982676e+003,2.557991e+001
1.984605e+003,2.547438e+001
1.986533e+003,2.767819e+001
1.988462e+003,3.247888e+001
1.990390e+003,3.416478e+001
1.992319e+003,2.918014e+001
1.994247e+003,2.734819e+001
1.996176e+003,3.248434e+001
1.998104e+003,3.547740e+001
2.000032e+003,3.207408e+001
2.001961e+003,2.790279e+001
2.003889e+003,2.582794e+001
2.005818e+003,2.568638e+001
2.007746e+003,2.862032e+001
2.009675e+003,3.362923e+001
2.011603e+003,3.373994e+001
2.013532e+003,2.834652e+001
2.015460e+003,2.558024e+001
2.017389e+003,2.705581e+001
2.019317e+003,2.853164e+001
2.021246e+003,2.888971e+001
2.023174e+003,2.910999e+001
2.025103e+003,2.869264e+001
2.027031e+003,2.926635e+001
2.028959e+003,3.459481e+001
2.030888e+003,4.085239e+001
2.032816e+003,3.886094e+001
2.034745e+003,2.939031e+001
2.036673e+003,2.645582e+001
2.038602e+003,3.375936e+001
2.040530e+003,3.668936e+001
2.042459e+003,3.094956e+001
2.044387e+003,2.702071e+001
2.046316e+003,2.770413e+001
2.048244e+003,2.905682e+001
2.050173e+003,2.955886e+001
2.052101e+003,2.965992e+001
2.054030e+003,2.936767e+001
2.055958e+003,2.914116e+001
2.057886e+003,2.994109e+001
2.059815e+003,3.177687e+001
2.061743e+003,3.531112e+001
2.063672e+003,4.104046e+001
2.065600e+003,4.417036e+001
2.067529e+003,4.332878e+001
2.069457e+003,4.171876e+001
2.071386e+003,3.918734e+001
2.073314e+003,3.767728e+001
2.075243e+003,3.838498e+001
2.077171e+003,4.029905e+001
2.079100e+003,4.402536e+001
2.081028e+003,4.762863e+001
2.082957e+003,4.625892e+001
2.084885e+003,4.046506e+001
2.086813e+003,3.773653e+001
2.088742e+003,3.887820e+001
2.090670e+003,4.078061e+001
2.092599e+003,4.520191e+001
2.094527e+003,4.675148e+001
2.096456e+003,4.225734e+001
2.098384e+003,3.834290e+001
2.100313e+003,3.699560e+001
2.102241e+003,3.742517e+001
2.104170e+003,4.073100e+001
2.106098e+003,4.435329e+001
2.108027e+003,4.434010e+001
2.109955e+003,4.202902e+001
2.111884e+003,4.166980e+001
2.113812e+003,4.330129e+001
2.115740e+003,4.390189e+001
2.117669e+003,4.256077e+001
2.119597e+003,4.263750e+001
2.121526e+003,4.605600e+001
2.123454e+003,4.857008e+001
2.125383e+003,4.880784e+001
2.127311e+003,4.854006e+001
2.129240e+003,4.832121e+001
2.131168e+003,4.821903e+001
2.133097e+003,4.876122e+001
2.135025e+003,4.920218e+001
2.136954e+003,4.787811e+001
2.138882e+003,4.521383e+001
2.140811e+003,4.290840e+001
2.142739e+003,4.101457e+001
2.144667e+003,4.170668e+001
2.146596e+003,4.602215e+001
2.148524e+003,4.884616e+001
2.150453e+003,4.863193e+001
2.152381e+003,4.790464e+001
2.154310e+003,4.777272e+001
2.156238e+003,4.685704e+001
2.158167e+003,4.300620e+001
2.160095e+003,3.952279e+001
2.162024e+003,3.986884e+001
2.163952e+003,4.234772e+001
2.165881e+003,4.427041e+001
2.167809e+003,4.568883e+001
2.169738e+003,4.701022e+001
2.171666e+003,4.823959e+001
2.173594e+003,4.823056e+001
2.175523e+003,4.667371e+001
2.177451e+003,4.534190e+001
2.179380e+003,4.460150e+001
2.181308e+003,4.388839e+001
2.183237e+003,4.302823e+001
2.185165e+003,4.222551e+001
2.187094e+003,4.174913e+001
2.189022e+003,4.118910e+001
2.190951e+003,3.988708e+001
2.192879e+003,3.859822e+001
2.194808e+003,3.831150e+001
2.196736e+003,3.878866e+001
2.198665e+003,3.948618e+001
2.200593e+003,4.038178e+001
2.202521e+003,4.137063e+001
2.204450e+003,4.259524e+001
2.206378e+003,4.150817e+001
2.208307e+003,3.686855e+001
2.210235e+003,3.505354e+001
2.212164e+003,3.885292e+001
2.214092e+003,4.200598e+001
2.216021e+003,4.183108e+001
2.217949e+003,4.135031e+001
2.219878e+003,4.247102e+001
2.221806e+003,4.324364e+001
2.223735e+003,4.156224e+001
2.225663e+003,3.905977e+001
2.227592e+003,3.749762e+001
2.229520e+003,3.697180e+001
2.231448e+003,3.852493e+001
2.233377e+003,4.173359e+001
2.235305e+003,4.177038e+001
2.237234e+003,3.850376e+001
2.239162e+003,3.683790e+001
2.241091e+003,3.756796e+001
2.243019e+003,3.770672e+001
2.244948e+003,3.592411e+001
2.246876e+003,3.534090e+001
2.248805e+003,3.743353e+001
2.250733e+003,3.991426e+001
2.252662e+003,4.217702e+001
2.254590e+003,4.421059e+001
2.256519e+003,4.696323e+001
2.258447e+003,4.858361e+001
2.260375e+003,4.565492e+001
2.262304e+003,4.136268e+001
2.264232e+003,4.169742e+001
2.266161e+003,4.509178e+001
2.268089e+003,4.671574e+001
2.270018e+003,4.672679e+001
2.271946e+003,4.744453e+001
2.273875e+003,4.921358e+001
2.275803e+003,4.912426e+001
2.277732e+003,4.501471e+001
2.279660e+003,4.362209e+001
2.281589e+003,4.771734e+001
2.283517e+003,5.097110e+001
2.285446e+003,5.290031e+001
2.287374e+003,5.311967e+001
2.289302e+003,4.939499e+001
2.291231e+003,4.654892e+001
2.293159e+003,4.771550e+001
2.295088e+003,5.029317e+001
2.297016e+003,5.243947e+001
2.298945e+003,5.436399e+001
2.300873e+003,5.675433e+001
2.302802e+003,5.900327e+001
2.304730e+003,5.988952e+001
2.306659e+003,5.931482e+001
2.308587e+003,5.568924e+001
2.310516e+003,4.809344e+001
2.312444e+003,4.559172e+001
2.314373e+003,4.903817e+001
2.316301e+003,5.285652e+001
2.318229e+003,5.725544e+001
2.320158e+003,5.899155e+001
2.322086e+003,5.593272e+001
2.324015e+003,5.412697e+001
2.325943e+003,5.748791e+001
2.327872e+003,5.953521e+001
2.329800e+003,5.568027e+001
2.331729e+003,5.252847e+001
2.333657e+003,5.504288e+001
2.335586e+003,5.868744e+001
2.337514e+003,5.930449e+001
2.339443e+003,5.900298e+001
2.341371e+003,6.084299e+001
2.343300e+003,6.348700e+001
2.345228e+003,6.496825e+001
2.347156e+003,6.497414e+001
2.349085e+003,6.152584e+001
2.351013e+003,5.508232e+001
2.352942e+003,5.179329e+001
2.354870e+003,5.186564e+001
2.356799e+003,5.407264e+001
2.358727e+003,6.012384e+001
2.360656e+003,6.323839e+001
2.362584e+003,6.186237e+001
2.364513e+003,6.162895e+001
2.366441e+003,6.395710e+001
2.368370e+003,6.582795e+001
2.370298e+003,6.590086e+001
2.372227e+003,6.628307e+001
2.374155e+003,6.875268e+001
2.376083e+003,7.050972e+001
2.378012e+003,6.972224e+001
2.379940e+003,6.820564e+001
2.381869e+003,6.709853e+001
2.383797e+003,6.610603e+001
2.385726e+003,6.515318e+001
2.387654e+003,6.398680e+001
2.389583e+003,6.170327e+001
2.391511e+003,5.922002e+001
2.393440e+003,5.850559e+001
2.395368e+003,5.914649e+001
2.397297e+003,5.963564e+001
2.399225e+003,5.999736e+001
2.401154e+003,6.056560e+001
2.403082e+003,6.120233e+001
2.405010e+003,6.342075e+001
2.406939e+003,6.793314e+001
2.408867e+003,7.033623e+001
2.410796e+003,7.015471e+001
2.412724e+003,6.873422e+001
2.414653e+003,6.494508e+001
2.416581e+003,6.488859e+001
2.418510e+003,7.389615e+001
2.420438e+003,7.912841e+001
2.422367e+003,7.559452e+001
2.424295e+003,6.986148e+001
2.426224e+003,5.867498e+001
2.428152e+003,5.330449e+001
2.430081e+003,6.436267e+001
2.432009e+003,7.597193e+001
2.433938e+003,7.925691e+001
2.435866e+003,7.925750e+001
2.437794e+003,7.893778e+001
2.439723e+003,7.848975e+001
2.441651e+003,7.805713e+001
2.443580e+003,7.763313e+001
2.445508e+003,7.780481e+001
2.447437e+003,7.766257e+001
2.449365e+003,7.442194e+001
2.451294e+003,6.922681e+001
2.453222e+003,6.600878e+001
2.455151e+003,6.474798e+001
2.457079e+003,6.608144e+001
2.459008e+003,6.964538e+001
2.460936e+003,7.094814e+001
2.462865e+003,6.972493e+001
2.464793e+003,6.688973e+001
2.466721e+003,6.037243e+001
2.468650e+003,5.949939e+001
2.470578e+003,6.649569e+001
2.472507e+003,6.954577e+001
2.474435e+003,6.609862e+001
2.476364e+003,6.509416e+001
2.478292e+003,6.965900e+001
2.480221e+003,7.244639e+001
2.482149e+003,6.947221e+001
2.484078e+003,6.802406e+001
2.486006e+003,7.236398e+001
2.487935e+003,7.450987e+001
2.489863e+003,6.920030e+001
2.491792e+003,6.538994e+001
2.493720e+003,6.787626e+001
2.495648e+003,7.026699e+001
2.497577e+003,6.880888e+001
2.499505e+003,6.639965e+001
2.501434e+003,6.318667e+001
2.503362e+003,6.189493e+001
2.505291e+003,6.659997e+001
2.507219e+003,7.253449e+001
2.509148e+003,7.568068e+001
2.511076e+003,7.646889e+001
2.513005e+003,7.404275e+001
2.514933e+003,7.062255e+001
2.516862e+003,6.904473e+001
2.518790e+003,6.898692e+001
2.520719e+003,7.081464e+001
2.522647e+003,7.332993e+001
2.524575e+003,7.255912e+001
2.526504e+003,6.972842e+001
2.528432e+003,7.057780e+001
2.530361e+003,7.413619e+001
2.532289e+003,7.403369e+001
2.534218e+003,7.115043e+001
2.536146e+003,7.227029e+001
2.538075e+003,7.749224e+001
2.540003e+003,8.051517e+001
2.541932e+003,8.128671e+001
2.543860e+003,7.961945e+001
2.545789e+003,7.514628e+001
2.547717e+003,7.008593e+001
2.549646e+003,6.398507e+001
2.551574e+003,6.357745e+001
2.553502e+003,7.052245e+001
2.555431e+003,7.590446e+001
2.557359e+003,7.854820e+001
2.559288e+003,7.941958e+001
2.561216e+003,7.555855e+001
2.563145e+003,7.613284e+001
2.565073e+003,8.349266e+001
2.567002e+003,9.016076e+001
2.568930e+003,9.504819e+001
2.570859e+003,9.868942e+001
2.572787e+003,1.007079e+002
2.574716e+003,1.027076e+002
2.576644e+003,1.074020e+002
2.578573e+003,1.084224e+002
2.580501e+003,1.007162e+002
2.582429e+003,9.448972e+001
2.584358e+003,9.327306e+001
2.586287e+003,9.229066e+001
2.588215e+003,9.096283e+001
2.590144e+003,8.739347e+001
2.592072e+003,7.758884e+001
2.594000e+003,6.989271e+001
2.595929e+003,6.869644e+001
2.597857e+003,7.025241e+001
2.599786e+003,7.426900e+001
2.601714e+003,7.817268e+001
2.603643e+003,8.036423e+001
2.605571e+003,8.223724e+001
2.607500e+003,8.554471e+001
2.609428e+003,8.783470e+001
2.611357e+003,8.525910e+001
2.613285e+003,8.333983e+001
2.615214e+003,8.987812e+001
2.617142e+003,9.542264e+001
2.619071e+003,8.877858e+001
2.620999e+003,8.060900e+001
2.622927e+003,8.071281e+001
2.624856e+003,8.326366e+001
2.626784e+003,8.276276e+001
2.628713e+003,8.111127e+001
2.630641e+003,8.031590e+001
2.632570e+003,7.975841e+001
2.634498e+003,7.871921e+001
2.636427e+003,7.743468e+001
2.638355e+003,7.518965e+001
2.640284e+003,7.377513e+001
2.642212e+003,7.632653e+001
2.644141e+003,8.057857e+001
2.646069e+003,8.357100e+001
2.647998e+003,8.563045e+001
2.649926e+003,8.656693e+001
2.651854e+003,8.745030e+001
2.653783e+003,9.111707e+001
2.655711e+003,9.520785e+001
2.657640e+003,9.542561e+001
2.659568e+003,9.378793e+001
2.661497e+003,9.384340e+001
2.663425e+003,9.495805e+001
2.665354e+003,9.648091e+001
2.667282e+003,9.768832e+001
2.669211e+003,9.676418e+001
2.671139e+003,9.448160e+001
2.673068e+003,9.175761e+001
2.674996e+003,8.923177e+001
2.676925e+003,8.878988e+001
2.678853e+003,8.941460e+001
2.680781e+003,8.835118e+001
2.682710e+003,8.657598e+001
2.684638e+003,8.664917e+001
2.686567e+003,8.774499e+001
2.688495e+003,8.801866e+001
2.690424e+003,8.790372e+001
2.692352e+003,8.841745e+001
2.694281e+003,8.936679e+001
2.696209e+003,9.026920e+001
2.698138e+003,9.117942e+001
2.700066e+003,9.265923e+001
2.701995e+003,9.396667e+001
2.703923e+003,9.315404e+001
2.705852e+003,9.106092e+001
2.707780e+003,8.945336e+001
2.709708e+003,8.836325e+001
2.711637e+003,8.716734e+001
2.713565e+003,8.694328e+001
2.715494e+003,9.276226e+001
2.717422e+003,1.000060e+002
2.719351e+003,9.830633e+001
2.721279e+003,9.172485e+001
2.723208e+003,8.854909e+001
2.725136e+003,8.736720e+001
2.727065e+003,8.346988e+001
2.728993e+003,8.029343e+001
2.730922e+003,8.776409e+001
2.732850e+003,9.876701e+001
2.734779e+003,1.008333e+002
2.736707e+003,9.768158e+001
2.738635e+003,9.445224e+001
2.740564e+003,9.230385e+001
2.742492e+003,9.502097e+001
2.744421e+003,9.883939e+001
2.746349e+003,9.788322e+001
2.748278e+003,9.451773e+001
2.750206e+003,9.187991e+001
2.752135e+003,8.921988e+001
2.754063e+003,8.463799e+001
2.755992e+003,8.008156e+001
2.757920e+003,7.732967e+001
2.759849e+003,7.703872e+001
2.761777e+003,8.184933e+001
2.763706e+003,8.751804e+001
2.765634e+003,8.950330e+001
2.767563e+003,8.953846e+001
2.769491e+003,8.788618e+001
2.771419e+003,8.699423e+001
2.773348e+003,9.015029e+001
2.775276e+003,9.378058e+001
2.777205e+003,9.381417e+001
2.779133e+003,9.404419e+001
2.781062e+003,1.005350e+002
2.782990e+003,1.050247e+002
2.784919e+003,9.815811e+001
2.786847e+003,9.078598e+001
2.788776e+003,8.980075e+001
2.790704e+003,9.051637e+001
2.792633e+003,9.169135e+001
2.794561e+003,9.133733e+001
2.796490e+003,8.469107e+001
2.798418e+003,8.196310e+001
2.800346e+003,9.086119e+001
2.802275e+003,9.855809e+001
2.804203e+003,9.683964e+001
2.806132e+003,9.573421e+001
2.808060e+003,9.990209e+001
2.809989e+003,1.043069e+002
2.811917e+003,1.082092e+002
2.813846e+003,1.103063e+002
2.815774e+003,1.092691e+002
2.817703e+003,1.086167e+002
2.819631e+003,1.099296e+002
2.821560e+003,1.108808e+002
2.823488e+003,1.100180e+002
2.825417e+003,1.115226e+002
2.827345e+003,1.162505e+002
2.829273e+003,1.223657e+002
2.831202e+003,1.298039e+002
2.833130e+003,1.378536e+002
2.835059e+003,1.479533e+002
2.836987e+003,1.536064e+002
2.838916e+003,1.531168e+002
2.840844e+003,1.589362e+002
2.842773e+003,1.723745e+002
2.844701e+003,1.896729e+002
2.846630e+003,2.119112e+002
2.848558e+003,2.281323e+002
2.850487e+003,2.382818e+002
2.852415e+003,2.461196e+002
2.854344e+003,2.513482e+002
2.856272e+003,2.475853e+002
2.858200e+003,2.367022e+002
2.860129e+003,2.391412e+002
2.862057e+003,2.500596e+002
2.863986e+003,2.386843e+002
2.865914e+003,2.124010e+002
2.867843e+003,1.945009e+002
2.869771e+003,1.819440e+002
2.871700e+003,1.645815e+002
2.873628e+003,1.491887e+002
2.875557e+003,1.527159e+002
2.877485e+003,1.637584e+002
2.879414e+003,1.646703e+002
2.881342e+003,1.629117e+002
2.883271e+003,1.660053e+002
2.885199e+003,1.716373e+002
2.887127e+003,1.751489e+002
2.889056e+003,1.831461e+002
2.890984e+003,2.071120e+002
2.892913e+003,2.285995e+002
2.894841e+003,2.274574e+002
2.896770e+003,2.331090e+002
2.898698e+003,2.653391e+002
2.900627e+003,3.019802e+002
2.902555e+003,3.344509e+002
2.904484e+003,3.695758e+002
2.906412e+003,4.047735e+002
2.908341e+003,4.545059e+002
2.910269e+003,5.150964e+002
2.912198e+003,6.083423e+002
2.914126e+003,7.413492e+002
2.916054e+003,8.947406e+002
2.917983e+003,1.077625e+003
2.919911e+003,1.204240e+003
2.921840e+003,1.268776e+003
2.923768e+003,1.229929e+003
2.925697e+003,1.075354e+003
2.927625e+003,9.368237e+002
2.929554e+003,8.207998e+002
2.931482e+003,7.845320e+002
2.933411e+003,8.152319e+002
2.935339e+003,8.104785e+002
2.937268e+003,7.785616e+002
2.939196e+003,7.438995e+002
2.941125e+003,7.185873e+002
2.943053e+003,7.531682e+002
2.944981e+003,7.977563e+002
2.946910e+003,7.650047e+002
2.948838e+003,6.982409e+002
2.950767e+003,6.290971e+002
2.952695e+003,5.853197e+002
2.954624e+003,5.885972e+002
2.956552e+003,6.264169e+002
2.958481e+003,7.179633e+002
2.960409e+003,7.997322e+002
2.962338e+003,8.632878e+002
2.964266e+003,8.602363e+002
2.966195e+003,7.412267e+002
2.968123e+003,6.275753e+002
2.970052e+003,5.450964e+002
2.971980e+003,5.045536e+002
2.973908e+003,5.176964e+002
2.975837e+003,5.331791e+002
2.977765e+003,5.484493e+002
2.979694e+003,5.374808e+002
2.981622e+003,4.927071e+002
2.983551e+003,4.387756e+002
2.985479e+003,3.755489e+002
2.987408e+003,3.285474e+002
2.989336e+003,2.980116e+002
2.991265e+003,2.822831e+002
2.993193e+003,2.800994e+002
2.995122e+003,2.936374e+002
2.997050e+003,3.154413e+002
2.998979e+003,3.327551e+002
3.000907e+003,3.449005e+002
3.002835e+003,3.514886e+002
3.004764e+003,3.520184e+002
3.006692e+003,3.403464e+002
3.008621e+003,3.299149e+002
3.010549e+003,3.271366e+002
3.012478e+003,3.319202e+002
3.014406e+003,3.435225e+002
3.016335e+003,3.640268e+002
3.018263e+003,3.942912e+002
3.020192e+003,4.353665e+002
3.022120e+003,4.904555e+002
3.024049e+003,5.435850e+002
3.025977e+003,5.928563e+002
3.027906e+003,6.343662e+002
3.029834e+003,6.661625e+002
3.031762e+003,7.073643e+002
3.033691e+003,7.559552e+002
3.035619e+003,7.931497e+002
3.037548e+003,8.173210e+002
3.039476e+003,8.086402e+002
3.041405e+003,7.910381e+002
3.043333e+003,7.822398e+002
3.045262e+003,8.492365e+002
3.047190e+003,1.032210e+003
3.049119e+003,1.390456e+003
3.051047e+003,2.156817e+003
3.052976e+003,2.874728e+003
3.054904e+003,3.303457e+003
3.056833e+003,3.515900e+003
3.058761e+003,3.448133e+003
3.060689e+003,3.354801e+003
3.062618e+003,3.365043e+003
3.064546e+003,3.207846e+003
3.066475e+003,2.840795e+003
3.068403e+003,2.363873e+003
3.070332e+003,1.742394e+003
3.072260e+003,1.253496e+003
3.074189e+003,8.971271e+002
3.076117e+003,6.742060e+002
3.078046e+003,5.632543e+002
3.079974e+003,4.837662e+002
3.081903e+003,4.272466e+002
3.083831e+003,3.819836e+002
3.085760e+003,3.456775e+002
3.087688e+003,3.148084e+002
3.089616e+003,2.917223e+002
3.091545e+003,2.831287e+002
3.093473e+003,2.760402e+002
3.095402e+003,2.609123e+002
3.097330e+003,2.495077e+002
3.099259e+003,2.479991e+002
3.101187e+003,2.423782e+002
3.103116e+003,2.242868e+002
3.105044e+003,2.122923e+002
3.106973e+003,2.075857e+002
3.108901e+003,2.017286e+002
3.110830e+003,1.942350e+002
3.112758e+003,1.850617e+002
3.114687e+003,1.751475e+002
3.116615e+003,1.689871e+002
3.118543e+003,1.654297e+002
3.120472e+003,1.635112e+002
3.122400e+003,1.609444e+002
3.124329e+003,1.525504e+002
3.126257e+003,1.458753e+002
3.128186e+003,1.496377e+002
3.130114e+003,1.512286e+002
3.132043e+003,1.408933e+002
3.133971e+003,1.350216e+002
3.135900e+003,1.416240e+002
3.137828e+003,1.417586e+002
3.139757e+003,1.324090e+002
3.141685e+003,1.289290e+002
3.143614e+003,1.331141e+002
3.145542e+003,1.354969e+002
3.147470e+003,1.360138e+002
3.149399e+003,1.321143e+002
3.151327e+003,1.279152e+002
3.153256e+003,1.317562e+002
3.155184e+003,1.401137e+002
3.157113e+003,1.467796e+002
3.159041e+003,1.585840e+002
3.160970e+003,1.888545e+002
3.162898e+003,2.102282e+002
3.164827e+003,2.107368e+002
3.166755e+003,1.970431e+002
3.168684e+003,1.664855e+002
3.170612e+003,1.429167e+002
3.172541e+003,1.304367e+002
3.174469e+003,1.214025e+002
3.176397e+003,1.153888e+002
3.178326e+003,1.062177e+002
3.180254e+003,9.670867e+001
3.182183e+003,9.528336e+001
3.184111e+003,9.889517e+001
3.186040e+003,1.061494e+002
3.187968e+003,1.114206e+002
3.189897e+003,1.083748e+002
3.191825e+003,1.050254e+002
3.193754e+003,1.052390e+002
3.195682e+003,1.069516e+002
3.197611e+003,1.100988e+002
3.199539e+003,1.129998e+002
3.201468e+003,1.155635e+002
3.203396e+003,1.170161e+002
3.205324e+003,1.173306e+002
3.207253e+003,1.111086e+002
3.209181e+003,1.006480e+002
3.211110e+003,9.331307e+001
3.213038e+003,8.632294e+001
3.214967e+003,7.281248e+001
3.216895e+003,6.077039e+001
3.218824e+003,5.624561e+001
3.220752e+003,5.524300e+001
3.222681e+003,5.833424e+001
3.224609e+003,5.968471e+001
3.226538e+003,5.813663e+001
3.228466e+003,5.523251e+001
3.230395e+003,5.092432e+001
3.232323e+003,4.821550e+001
3.234251e+003,4.715996e+001
3.236180e+003,4.911533e+001
3.238108e+003,5.155264e+001
3.240037e+003,4.782887e+001
3.241965e+003,4.343792e+001
3.243894e+003,4.604664e+001
3.245822e+003,4.864110e+001
3.247751e+003,4.646717e+001
3.249679e+003,4.514365e+001
3.251608e+003,4.836892e+001
3.253536e+003,4.869628e+001
3.255465e+003,4.520986e+001
3.257393e+003,4.391031e+001
3.259322e+003,4.494157e+001
3.261250e+003,4.214149e+001
3.263178e+003,3.767898e+001
3.265107e+003,3.843345e+001
3.267035e+003,4.166691e+001
3.268964e+003,4.700491e+001
3.270892e+003,4.898020e+001
3.272821e+003,4.024693e+001
3.274749e+003,3.469242e+001
3.276678e+003,3.847147e+001
3.278606e+003,4.077615e+001
3.280535e+003,3.961241e+001
3.282463e+003,3.995062e+001
3.284392e+003,4.144795e+001
3.286320e+003,3.955266e+001
3.288249e+003,3.600024e+001
3.290177e+003,3.536799e+001
3.292105e+003,3.614707e+001
3.294034e+003,3.713598e+001
3.295962e+003,3.791108e+001
3.297891e+003,3.954286e+001
3.299819e+003,3.782083e+001
3.301748e+003,3.057714e+001
3.303676e+003,2.602658e+001
3.305605e+003,2.551720e+001
3.307533e+003,2.968275e+001
3.309462e+003,3.708456e+001
3.311390e+003,3.831832e+001
3.313319e+003,3.618532e+001
3.315247e+003,3.424720e+001
3.317176e+003,3.341243e+001
3.319104e+003,3.533917e+001
3.321032e+003,3.689074e+001
3.322961e+003,3.744112e+001
3.324889e+003,3.516017e+001
3.326818e+003,2.897236e+001
3.328746e+003,2.699092e+001
3.330675e+003,2.948218e+001
3.332603e+003,3.026940e+001
3.334532e+003,2.980072e+001
3.336460e+003,2.838153e+001
3.338389e+003,2.810356e+001
3.340317e+003,3.423271e+001
3.342246e+003,3.730764e+001
3.344174e+003,2.984229e+001
3.346103e+003,2.374265e+001
3.348031e+003,2.166391e+001
3.349959e+003,2.097461e+001
3.351888e+003,2.136153e+001
3.353816e+003,2.425654e+001
3.355745e+003,2.776873e+001
3.357673e+003,2.508629e+001
3.359602e+003,2.094115e+001
3.361530e+003,2.239386e+001
3.363459e+003,2.408940e+001
3.365387e+003,2.234633e+001
3.367316e+003,2.140046e+001
3.369244e+003,2.267405e+001
3.371173e+003,2.343997e+001
3.373101e+003,2.355186e+001
3.375030e+003,2.477421e+001
3.376958e+003,2.596116e+001
3.378886e+003,2.066190e+001
3.380815e+003,1.527878e+001
3.382743e+003,1.861836e+001
3.384672e+003,2.262243e+001
3.386600e+003,2.198651e+001
3.388529e+003,2.225782e+001
3.390457e+003,2.544290e+001
3.392386e+003,2.296209e+001
3.394314e+003,1.413828e+001
3.396243e+003,1.351990e+001
3.398171e+003,1.789705e+001
3.400100e+003,2.002862e+001
3.402028e+003,2.076535e+001
3.403957e+003,1.962284e+001
3.405885e+003,1.993550e+001
3.407813e+003,2.462016e+001
3.409742e+003,2.697717e+001
3.411670e+003,2.529763e+001
3.413599e+003,2.590959e+001
3.415527e+003,2.818126e+001
3.417456e+003,2.600430e+001
3.419384e+003,2.212038e+001
3.421313e+003,2.287179e+001
3.423241e+003,2.320542e+001
3.425170e+003,1.744376e+001
3.427098e+003,1.405040e+001
3.429027e+003,1.581605e+001
3.430955e+003,1.900645e+001
3.432884e+003,2.325310e+001
3.434812e+003,2.434780e+001
3.436740e+003,2.305100e+001
3.438669e+003,2.153123e+001
3.440597e+003,2.038889e+001
3.442526e+003,2.079489e+001
3.444454e+003,2.096684e+001
3.446383e+003,2.022680e+001
3.448311e+003,1.851359e+001
3.450240e+003,1.483722e+001
3.452168e+003,1.635032e+001
3.454097e+003,2.174880e+001
3.456025e+003,2.068976e+001
3.457954e+003,1.791549e+001
3.459882e+003,2.256709e+001
3.461811e+003,2.546415e+001
3.463739e+003,1.902995e+001
3.465667e+003,1.609442e+001
3.467596e+003,2.357669e+001
3.469524e+003,2.663874e+001
3.471453e+003,2.547386e+001
3.473381e+003,2.291761e+001
3.475310e+003,2.002490e+001
3.477238e+003,1.830732e+001
3.479167e+003,1.784942e+001
3.481095e+003,1.907557e+001
3.483024e+003,2.075492e+001
3.484952e+003,2.267392e+001
3.486881e+003,2.488095e+001
3.488809e+003,2.707598e+001
3.490738e+003,2.431307e+001
3.492666e+003,1.947830e+001
3.494594e+003,2.077986e+001
3.496523e+003,2.249956e+001
3.498451e+003,1.947277e+001
3.500380e+003,1.632236e+001
3.502308e+003,1.377842e+001
3.504237e+003,1.449142e+001
3.506165e+003,1.884102e+001
3.508094e+003,2.152067e+001
3.510022e+003,2.318846e+001
3.511951e+003,2.780012e+001
3.513879e+003,2.898476e+001
3.515808e+003,1.541721e+001
3.517736e+003,8.452980e+000
3.519665e+003,1.554314e+001
3.521593e+003,1.919230e+001
3.523521e+003,1.773550e+001
3.525450e+003,1.910895e+001
3.527378e+003,2.076270e+001
3.529307e+003,1.506267e+001
3.531235e+003,1.161242e+001
3.533164e+003,2.103072e+001
3.535092e+003,2.626940e+001
3.537021e+003,1.973319e+001
3.538949e+003,1.849254e+001
3.540878e+003,2.216350e+001
3.542806e+003,2.245801e+001
3.544735e+003,2.035697e+001
3.546663e+003,1.559771e+001
3.548592e+003,1.225265e+001
3.550520e+003,1.239725e+001
3.552448e+003,1.525810e+001
3.554377e+003,2.214438e+001
3.556305e+003,2.232967e+001
3.558234e+003,1.731795e+001
3.560162e+003,1.424581e+001
3.562091e+003,1.300761e+001
3.564019e+003,1.371438e+001
3.565948e+003,1.563469e+001
3.567876e+003,1.952996e+001
3.569805e+003,2.201444e+001
3.571733e+003,2.287151e+001
3.573662e+003,2.463770e+001
3.575590e+003,2.609701e+001
3.577519e+003,2.299562e+001
3.579447e+003,1.865277e+001
3.581376e+003,1.441242e+001
3.583304e+003,1.278486e+001
3.585233e+003,1.478857e+001
3.587161e+003,1.780377e+001
3.589090e+003,2.121494e+001
3.591018e+003,2.182587e+001
3.592947e+003,2.087854e+001
3.594875e+003,2.076389e+001
3.596803e+003,1.928328e+001
3.598732e+003,1.274720e+001
3.600660e+003,1.049491e+001
3.602589e+003,1.348625e+001
3.604517e+003,1.905051e+001
3.606446e+003,2.359691e+001
3.608374e+003,1.152981e+001
3.610303e+003,2.395138e-001
3.612231e+003,6.438066e+000
3.614160e+003,1.348228e+001
3.616088e+003,1.766479e+001
3.618017e+003,2.027386e+001
3.619945e+003,2.143014e+001
3.621874e+003,1.986417e+001
3.623802e+003,1.824087e+001
3.625730e+003,2.083746e+001
3.627659e+003,2.258455e+001
3.629587e+003,2.054570e+001
3.631516e+003,2.082536e+001
3.633444e+003,2.405729e+001
3.635373e+003,1.909353e+001
3.637301e+003,1.177250e+001
3.639230e+003,1.537659e+001
3.641158e+003,1.997701e+001
3.643087e+003,1.841439e+001
3.645015e+003,1.796566e+001
3.646944e+003,1.975778e+001
3.648872e+003,1.824056e+001
3.650801e+003,1.487658e+001
3.652729e+003,1.505330e+001
3.654657e+003,1.673170e+001
3.656586e+003,1.944560e+001
3.658514e+003,2.068505e+001
3.660443e+003,1.974709e+001
3.662371e+003,1.948116e+001
3.664300e+003,1.983238e+001
3.666228e+003,1.935595e+001
3.668157e+003,1.897294e+001
3.670085e+003,2.144644e+001
3.672014e+003,1.996817e+001
3.673942e+003,1.160687e+001
3.675871e+003,8.542582e+000
3.677799e+003,1.119953e+001
3.679728e+003,1.636985e+001
3.681656e+003,2.152523e+001
3.683584e+003,2.424507e+001
3.685513e+003,2.447183e+001
3.687441e+003,2.149447e+001
3.689370e+003,2.161956e+001
3.691298e+003,2.489797e+001
3.693227e+003,2.413131e+001
3.695155e+003,2.029120e+001
3.697084e+003,1.130283e+001
3.699012e+003,7.606840e+000
3.700941e+003,1.510339e+001
3.702869e+003,1.956677e+001
3.704798e+003,1.951466e+001
3.706726e+003,1.627298e+001
3.708655e+003,1.438364e+001
3.710583e+003,2.358770e+001
3.712511e+003,2.914055e+001
3.714440e+003,2.312892e+001
3.716368e+003,1.985661e+001
3.718297e+003,2.061025e+001
3.720225e+003,2.055760e+001
3.722154e+003,2.016154e+001
3.724082e+003,2.007381e+001
3.726011e+003,1.999568e+001
3.727939e+003,1.993602e+001
3.729868e+003,1.902400e+001
3.731796e+003,1.742625e+001
3.733725e+003,1.832982e+001
3.735653e+003,1.947274e+001
3.737582e+003,1.721177e+001
3.739510e+003,1.552948e+001
3.741438e+003,1.616987e+001
3.743367e+003,1.606538e+001
3.745295e+003,1.551760e+001
3.747224e+003,1.952402e+001
3.749152e+003,2.338977e+001
3.751081e+003,2.069910e+001
3.753009e+003,1.871143e+001
3.754938e+003,1.996917e+001
3.756866e+003,2.017688e+001
3.758795e+003,1.962030e+001
3.760723e+003,2.167349e+001
3.762652e+003,2.320196e+001
3.764580e+003,1.993137e+001
3.766509e+003,1.922573e+001
3.768437e+003,2.335370e+001
3.770365e+003,2.270130e+001
3.772294e+003,1.914988e+001
3.774222e+003,1.876323e+001
3.776151e+003,2.088196e+001
3.778079e+003,2.685439e+001
3.780008e+003,2.972508e+001
3.781936e+003,2.854336e+001
3.783865e+003,2.680500e+001
3.785793e+003,2.412282e+001
3.787722e+003,1.724367e+001
3.789650e+003,1.294788e+001
3.791579e+003,1.640714e+001
3.793507e+003,1.701234e+001
3.795436e+003,1.417534e+001
3.797364e+003,1.126773e+001
3.799292e+003,1.062696e+001
3.801221e+003,1.825189e+001
3.803149e+003,2.428183e+001
3.805078e+003,2.541436e+001
3.807006e+003,2.282143e+001
3.808935e+003,1.823384e+001
3.810863e+003,1.795496e+001
3.812792e+003,2.008293e+001
3.814720e+003,2.470209e+001
3.816649e+003,2.693495e+001
3.818577e+003,2.537316e+001
3.820506e+003,2.234151e+001
3.822434e+003,1.844367e+001
3.824363e+003,1.252319e+001
3.826291e+003,1.168132e+001
3.828219e+003,2.212141e+001
3.830148e+003,2.418270e+001
3.832076e+003,1.660509e+001
3.834005e+003,1.171012e+001
3.835933e+003,1.047494e+001
3.837862e+003,1.515997e+001
3.839790e+003,2.136723e+001
3.841719e+003,2.841424e+001
3.843647e+003,2.822559e+001
3.845576e+003,2.355824e+001
3.847504e+003,2.217023e+001
3.849433e+003,2.266287e+001
3.851361e+003,2.573426e+001
3.853290e+003,2.672847e+001
3.855218e+003,2.523771e+001
3.857146e+003,2.114618e+001
3.859075e+003,1.736092e+001
3.861003e+003,1.880898e+001
3.862932e+003,1.940540e+001
3.864860e+003,1.632014e+001
3.866789e+003,1.562851e+001
3.868717e+003,1.716267e+001
3.870646e+003,2.204758e+001
3.872574e+003,2.365950e+001
3.874503e+003,1.546613e+001
3.876431e+003,1.385425e+001
3.878360e+003,1.994914e+001
3.880288e+003,2.102098e+001
3.882217e+003,1.920568e+001
3.884145e+003,1.426628e+001
3.886073e+003,1.384378e+001
3.888002e+003,2.124914e+001
3.889930e+003,2.482056e+001
3.891859e+003,2.579900e+001
3.893787e+003,2.823311e+001
3.895716e+003,3.032246e+001
3.897644e+003,3.109972e+001
3.899573e+003,3.165958e+001
3.901501e+003,3.183132e+001
3.903430e+003,2.790402e+001
3.905358e+003,2.414413e+001
3.907287e+003,2.577706e+001
3.909215e+003,2.591640e+001
3.911144e+003,2.351873e+001
3.913072e+003,2.608980e+001
3.915000e+003,2.963138e+001
3.916929e+003,2.561988e+001
3.918857e+003,2.219249e+001
3.920786e+003,2.374127e+001
3.922714e+003,2.013295e+001
3.924643e+003,1.394900e+001
3.926571e+003,1.479472e+001
3.928500e+003,1.732317e+001
3.930428e+003,1.859535e+001
3.932357e+003,1.879377e+001
3.934285e+003,1.847065e+001
3.936214e+003,2.372968e+001
3.938142e+003,2.820714e+001
3.940071e+003,2.412177e+001
3.941999e+003,1.989354e+001
3.943927e+003,1.704815e+001
3.945856e+003,1.936407e+001
3.947784e+003,2.288240e+001
3.949713e+003,2.049880e+001
3.951641e+003,2.029584e+001
3.953570e+003,2.492406e+001
3.955498e+003,2.407492e+001
3.957427e+003,2.018635e+001
3.959355e+003,2.171862e+001
3.961284e+003,2.184250e+001
3.963212e+003,1.571013e+001
3.965141e+003,1.135075e+001
3.967069e+003,9.945380e+000
3.968998e+003,1.553804e+001
3.970926e+003,2.166508e+001
3.972854e+003,2.498292e+001
3.974783e+003,2.270458e+001
3.976711e+003,1.630660e+001
3.978640e+003,1.886714e+001
3.980568e+003,2.224658e+001
3.982497e+003,1.726015e+001
3.984425e+003,1.582355e+001
3.986354e+003,2.035948e+001
3.988282e+003,1.846536e+001
3.990211e+003,1.571432e+001
3.992139e+003,2.013333e+001
3.994068e+003,2.402081e+001
3.995996e+003,2.563519e+001
3.997925e+003,2.501003e+001
3.999853e+003,2.307312e+001
4.001781e+003,2.024089e+001
4.003710e+003,1.949108e+001
4.005638e+003,2.215196e+001
4.007567e+003,1.926806e+001
4.009495e+003,1.466126e+001
4.011424e+003,1.935555e+001
4.013352e+003,2.226707e+001
4.015281e+003,1.568252e+001
4.017209e+003,1.691644e+001
4.019138e+003,2.217284e+001
4.021066e+003,2.234745e+001
4.022995e+003,1.919359e+001
4.024923e+003,1.277942e+001
4.026852e+003,1.050279e+001
4.028780e+003,1.171798e+001
4.030708e+003,1.330877e+001
4.032637e+003,1.478265e+001
4.034565e+003,1.595145e+001
4.036494e+003,1.597844e+001
4.038422e+003,1.567433e+001
4.040351e+003,1.942480e+001
4.042279e+003,2.318235e+001
4.044208e+003,2.619135e+001
4.046136e+003,2.006419e+001
4.048065e+003,9.514376e+000
4.049993e+003,1.790060e+001
4.051922e+003,2.623989e+001
4.053850e+003,2.193133e+001
4.055779e+003,2.097937e+001
4.057707e+003,2.287229e+001
4.059635e+003,1.201465e+001
4.061564e+003,5.767513e+000
4.063492e+003,1.865689e+001
4.065421e+003,2.332206e+001
4.067349e+003,1.894756e+001
4.069278e+003,1.580540e+001
4.071206e+003,1.547996e+001
4.073135e+003,2.110537e+001
4.075063e+003,2.581856e+001
4.076992e+003,2.806129e+001
4.078920e+003,2.251893e+001
4.080849e+003,1.539250e+001
4.082777e+003,9.382736e+000
4.084706e+003,8.877977e+000
4.086634e+003,1.255670e+001
4.088563e+003,1.519304e+001
4.090491e+003,1.637836e+001
4.092419e+003,1.582175e+001
4.094348e+003,1.375859e+001
4.096276e+003,1.202352e+001
4.098205e+003,2.097386e+001
4.100133e+003,2.777993e+001
4.102062e+003,2.422062e+001
4.103990e+003,2.264685e+001
4.105919e+003,2.250813e+001
4.107847e+003,1.867246e+001
4.109776e+003,1.490576e+001
4.111704e+003,1.184236e+001
4.113633e+003,1.535050e+001
4.115561e+003,2.209970e+001
4.117490e+003,2.424958e+001
4.119418e+003,2.468151e+001
4.121347e+003,2.473407e+001
4.123275e+003,1.953029e+001
4.125204e+003,1.307707e+001
4.127132e+003,1.374222e+001
4.129061e+003,1.576553e+001
4.130989e+003,1.743309e+001
4.132917e+003,1.739346e+001
4.134846e+003,1.597807e+001
4.136774e+003,1.228421e+001
4.138703e+003,1.169755e+001
4.140631e+003,1.560628e+001
4.142560e+003,1.783737e+001
4.144488e+003,1.904473e+001
4.146417e+003,2.079494e+001
4.148345e+003,1.913855e+001
4.150273e+003,1.364383e+001
4.152202e+003,1.060522e+001
4.154130e+003,9.275867e+000
4.156059e+003,9.822744e+000
4.157987e+003,9.066097e+000
4.159916e+003,7.762626e+000
4.161844e+003,1.350956e+001
4.163773e+003,1.834875e+001
4.165701e+003,1.550782e+001
4.167630e+003,1.570297e+001
4.169558e+003,1.786367e+001
4.171487e+003,1.659196e+001
4.173415e+003,1.572272e+001
4.175344e+003,1.684816e+001
4.177272e+003,1.970665e+001
4.179201e+003,2.197584e+001
4.181129e+003,1.825766e+001
4.183058e+003,1.500914e+001
4.184986e+003,1.392782e+001
4.186915e+003,1.929517e+001
4.188843e+003,2.466396e+001
4.190771e+003,2.181917e+001
4.192700e+003,1.786628e+001
4.194628e+003,1.437790e+001
4.196557e+003,1.455058e+001
4.198485e+003,1.534966e+001
4.200414e+003,1.442026e+001
4.202342e+003,1.436523e+001
4.204271e+003,1.484124e+001
4.206199e+003,1.162656e+001
4.208127e+003,1.105208e+001
4.210056e+003,1.775762e+001
4.211984e+003,1.765566e+001
4.213913e+003,1.346071e+001
4.215841e+003,1.056575e+001
4.217770e+003,9.187265e+000
4.219698e+003,9.322624e+000
4.221627e+003,1.584451e+001
4.223555e+003,2.160255e+001
4.225484e+003,1.574080e+001
4.227412e+003,1.423610e+001
4.229341e+003,1.752945e+001
4.231269e+003,1.182926e+001
4.233198e+003,7.601315e+000
4.235126e+003,1.434725e+001
4.237055e+003,1.700330e+001
4.238983e+003,1.668215e+001
4.240912e+003,1.718764e+001
4.242840e+003,1.816870e+001
4.244769e+003,1.971778e+001
4.246697e+003,1.781126e+001
4.248625e+003,1.475480e+001
4.250554e+003,1.302943e+001
