1.159199e+002,6.968449e+002
1.178484e+002,7.519830e+002
1.197769e+002,7.951416e+002
1.217053e+002,8.256565e+002
1.236338e+002,8.324181e+002
1.255623e+002,7.994662e+002
1.274907e+002,7.519296e+002
1.294192e+002,7.119442e+002
1.313477e+002,6.791212e+002
1.332761e+002,6.553398e+002
1.352046e+002,6.430875e+002
1.371331e+002,6.442194e+002
1.390615e+002,6.462986e+002
1.409900e+002,6.412281e+002
1.429185e+002,6.356295e+002
1.448469e+002,6.444256e+002
1.467754e+002,6.821370e+002
1.487039e+002,7.195259e+002
1.506323e+002,7.463788e+002
1.525608e+002,7.660425e+002
1.544893e+002,7.688047e+002
1.564177e+002,7.573256e+002
1.583462e+002,7.331068e+002
1.602747e+002,6.923328e+002
1.622031e+002,6.229862e+002
1.641316e+002,5.534595e+002
1.660601e+002,4.975659e+002
1.679885e+002,4.552008e+002
1.699170e+002,4.235114e+002
1.718455e+002,4.016475e+002
1.737739e+002,3.898368e+002
1.757024e+002,3.810805e+002
1.776309e+002,3.761459e+002
1.795593e+002,3.733542e+002
1.814878e+002,3.712702e+002
1.834163e+002,3.740853e+002
1.853447e+002,3.733355e+002
1.872732e+002,3.650260e+002
1.892017e+002,3.500909e+002
1.911301e+002,3.390188e+002
1.930586e+002,3.365435e+002
1.949871e+002,3.378634e+002
1.969155e+002,3.370906e+002
1.988440e+002,3.332987e+002
2.007725e+002,3.288071e+002
2.027009e+002,3.225921e+002
2.046294e+002,3.137135e+002
2.065579e+002,3.102297e+002
2.084864e+002,3.176501e+002
2.104148e+002,3.304568e+002
2.123433e+002,3.361266e+002
2.142718e+002,3.294912e+002
2.162002e+002,3.218721e+002
2.181287e+002,3.181201e+002
2.200572e+002,3.198481e+002
2.219856e+002,3.212354e+002
2.239141e+002,3.219998e+002
2.258426e+002,3.221126e+002
2.277710e+002,3.216539e+002
2.296995e+002,3.201062e+002
2.316280e+002,3.189179e+002
2.335564e+002,3.187592e+002
2.354849e+002,3.203964e+002
2.374134e+002,3.224508e+002
2.393418e+002,3.256144e+002
2.412703e+002,3.291893e+002
2.431988e+002,3.316695e+002
2.451272e+002,3.316637e+002
2.470557e+002,3.311508e+002
2.489842e+002,3.305066e+002
2.509126e+002,3.280808e+002
2.528411e+002,3.288143e+002
2.547696e+002,3.380269e+002
2.566980e+002,3.516498e+002
2.586265e+002,3.584396e+002
2.605550e+002,3.525291e+002
2.624834e+002,3.437095e+002
2.644119e+002,3.356526e+002
2.663404e+002,3.273062e+002
2.682688e+002,3.230757e+002
2.701973e+002,3.262160e+002
2.721258e+002,3.348723e+002
2.740542e+002,3.420020e+002
2.759827e+002,3.472401e+002
2.779112e+002,3.510462e+002
2.798396e+002,3.534499e+002
2.817681e+002,3.545847e+002
2.836966e+002,3.541515e+002
2.856250e+002,3.517997e+002
2.875535e+002,3.479759e+002
2.894820e+002,3.440753e+002
2.914104e+002,3.411011e+002
2.933389e+002,3.376975e+002
2.952674e+002,3.320232e+002
2.971958e+002,3.223310e+002
2.991243e+002,3.184679e+002
3.010528e+002,3.256458e+002
3.029813e+002,3.398671e+002
3.049097e+002,3.485174e+002
3.068382e+002,3.487677e+002
3.087667e+002,3.463224e+002
3.106951e+002,3.428610e+002
3.126236e+002,3.369131e+002
3.145521e+002,3.345162e+002
3.164805e+002,3.378110e+002
3.184090e+002,3.447588e+002
3.203375e+002,3.509066e+002
3.222659e+002,3.559834e+002
3.241944e+002,3.609698e+002
3.261229e+002,3.665597e+002
3.280513e+002,3.737074e+002
3.299798e+002,3.788438e+002
3.319083e+002,3.783442e+002
3.338367e+002,3.770137e+002
3.357652e+002,3.820173e+002
3.376937e+002,3.997297e+002
3.396221e+002,4.126499e+002
3.415506e+002,4.140573e+002
3.434791e+002,4.008232e+002
3.454075e+002,3.902968e+002
3.473360e+002,3.833029e+002
3.492645e+002,3.787941e+002
3.511929e+002,3.755598e+002
3.531214e+002,3.740235e+002
3.550499e+002,3.731483e+002
3.569783e+002,3.731675e+002
3.589068e+002,3.740095e+002
3.608353e+002,3.736162e+002
3.627637e+002,3.695219e+002
3.646922e+002,3.662589e+002
3.666207e+002,3.666833e+002
3.685491e+002,3.734362e+002
3.704776e+002,3.784889e+002
3.724061e+002,3.779039e+002
3.743345e+002,3.744199e+002
3.762630e+002,3.776601e+002
3.781915e+002,3.950010e+002
3.801199e+002,4.104412e+002
3.820484e+002,4.158012e+002
3.839769e+002,4.042931e+002
3.859053e+002,3.986356e+002
3.878338e+002,4.055974e+002
3.897623e+002,4.171615e+002
3.916907e+002,4.198678e+002
3.936192e+002,4.071357e+002
3.955477e+002,3.965949e+002
3.974761e+002,3.947010e+002
3.994046e+002,4.034144e+002
4.013331e+002,4.106161e+002
4.032615e+002,4.161230e+002
4.051900e+002,4.206267e+002
4.071185e+002,4.248846e+002
4.090469e+002,4.292844e+002
4.109754e+002,4.330833e+002
4.129039e+002,4.364597e+002
4.148323e+002,4.393878e+002
4.167608e+002,4.413264e+002
4.186893e+002,4.421057e+002
4.206177e+002,4.419023e+002
4.225462e+002,4.401487e+002
4.244747e+002,4.363230e+002
4.264032e+002,4.335770e+002
4.283316e+002,4.323781e+002
4.302601e+002,4.323817e+002
4.321886e+002,4.330407e+002
4.341170e+002,4.328506e+002
4.360455e+002,4.354840e+002
4.379740e+002,4.451620e+002
4.399024e+002,4.610748e+002
4.418309e+002,4.709387e+002
4.437594e+002,4.688001e+002
4.456878e+002,4.638582e+002
4.476163e+002,4.621703e+002
4.495448e+002,4.639399e+002
4.514732e+002,4.670403e+002
4.534017e+002,4.730004e+002
4.553302e+002,4.800295e+002
4.572586e+002,4.838870e+002
4.591871e+002,4.816638e+002
4.611156e+002,4.791840e+002
4.630440e+002,4.777834e+002
4.649725e+002,4.775326e+002
4.669010e+002,4.787833e+002
4.688294e+002,4.834439e+002
4.707579e+002,4.885097e+002
4.726864e+002,4.915010e+002
4.746148e+002,4.868468e+002
4.765433e+002,4.866235e+002
4.784718e+002,4.948075e+002
4.804002e+002,5.080974e+002
4.823287e+002,5.179880e+002
4.842572e+002,5.242085e+002
4.861856e+002,5.266135e+002
4.881141e+002,5.246553e+002
4.900426e+002,5.165836e+002
4.919710e+002,5.106649e+002
4.938995e+002,5.050093e+002
4.958280e+002,5.028561e+002
4.977564e+002,5.087809e+002
4.996849e+002,5.279537e+002
5.016134e+002,5.399710e+002
5.035418e+002,5.350991e+002
5.054703e+002,5.181956e+002
5.073988e+002,5.097900e+002
5.093272e+002,5.157898e+002
5.112557e+002,5.230734e+002
5.131842e+002,5.261395e+002
5.151127e+002,5.252491e+002
5.170411e+002,5.259796e+002
5.189696e+002,5.314537e+002
5.208981e+002,5.375460e+002
5.228265e+002,5.412530e+002
5.247550e+002,5.433951e+002
5.266835e+002,5.420328e+002
5.286119e+002,5.318928e+002
5.305404e+002,5.188163e+002
5.324689e+002,5.131524e+002
5.343973e+002,5.222415e+002
5.363258e+002,5.312781e+002
5.382543e+002,5.359310e+002
5.401827e+002,5.355230e+002
5.421112e+002,5.341024e+002
5.440397e+002,5.298897e+002
5.459681e+002,5.256520e+002
5.478966e+002,5.228868e+002
5.498251e+002,5.217429e+002
5.517535e+002,5.219625e+002
5.536820e+002,5.247592e+002
5.556105e+002,5.287569e+002
5.575389e+002,5.311730e+002
5.594674e+002,5.295208e+002
5.613959e+002,5.319709e+002
5.633243e+002,5.460568e+002
5.652528e+002,5.681075e+002
5.671813e+002,5.813323e+002
5.691097e+002,5.769525e+002
5.710382e+002,5.703552e+002
5.729667e+002,5.658245e+002
5.748951e+002,5.631343e+002
5.768236e+002,5.646725e+002
5.787521e+002,5.735345e+002
5.806805e+002,5.848026e+002
5.826090e+002,5.953431e+002
5.845375e+002,6.078124e+002
5.864659e+002,6.134294e+002
5.883944e+002,6.100026e+002
5.903229e+002,5.997294e+002
5.922513e+002,5.862487e+002
5.941798e+002,5.662007e+002
5.961083e+002,5.504495e+002
5.980367e+002,5.441569e+002
5.999652e+002,5.464183e+002
6.018937e+002,5.486475e+002
6.038221e+002,5.490718e+002
6.057506e+002,5.508823e+002
6.076791e+002,5.556168e+002
6.096075e+002,5.630801e+002
6.115360e+002,5.715977e+002
6.134645e+002,5.843816e+002
6.153929e+002,5.952108e+002
6.173214e+002,5.998968e+002
6.192499e+002,5.973619e+002
6.211783e+002,5.902932e+002
6.231068e+002,5.736241e+002
6.250353e+002,5.549031e+002
6.269637e+002,5.461137e+002
6.288922e+002,5.504518e+002
6.308207e+002,5.561581e+002
6.327491e+002,5.593589e+002
6.346776e+002,5.606382e+002
6.366061e+002,5.626839e+002
6.385345e+002,5.652496e+002
6.404630e+002,5.681160e+002
6.423915e+002,5.728665e+002
6.443199e+002,5.786038e+002
6.462484e+002,5.787410e+002
6.481769e+002,5.672657e+002
6.501053e+002,5.556935e+002
6.520338e+002,5.507386e+002
6.539623e+002,5.557409e+002
6.558907e+002,5.586124e+002
6.578192e+002,5.578727e+002
6.597477e+002,5.559053e+002
6.616761e+002,5.535942e+002
6.636046e+002,5.494270e+002
6.655331e+002,5.507052e+002
6.674615e+002,5.661041e+002
6.693900e+002,5.858928e+002
6.713185e+002,5.974589e+002
6.732469e+002,5.936508e+002
6.751754e+002,5.895656e+002
6.771039e+002,5.849142e+002
6.790323e+002,5.813083e+002
6.809608e+002,5.823865e+002
6.828893e+002,5.904584e+002
6.848177e+002,5.991492e+002
6.867462e+002,6.059176e+002
6.886747e+002,6.107249e+002
6.906031e+002,6.155366e+002
6.925316e+002,6.221053e+002
6.944601e+002,6.269822e+002
6.963885e+002,6.285224e+002
6.983170e+002,6.268856e+002
7.002455e+002,6.238867e+002
7.021740e+002,6.187561e+002
7.041024e+002,6.131632e+002
7.060309e+002,6.074971e+002
7.079594e+002,6.006133e+002
7.098878e+002,5.971128e+002
7.118163e+002,5.998105e+002
7.137448e+002,6.036782e+002
7.156732e+002,6.037621e+002
7.176017e+002,5.996073e+002
7.195302e+002,5.967173e+002
7.214586e+002,5.917230e+002
7.233871e+002,5.915549e+002
7.253156e+002,6.045475e+002
7.272440e+002,6.426696e+002
7.291725e+002,6.744107e+002
7.311010e+002,6.937487e+002
7.330294e+002,7.055786e+002
7.349579e+002,7.154666e+002
7.368864e+002,7.149283e+002
7.388149e+002,7.311255e+002
7.407433e+002,7.893323e+002
7.426718e+002,8.693998e+002
7.446003e+002,9.272831e+002
7.465287e+002,9.639535e+002
7.484572e+002,9.736274e+002
7.503857e+002,9.438835e+002
7.523141e+002,8.829158e+002
7.542426e+002,8.270282e+002
7.561711e+002,7.725310e+002
7.580995e+002,7.287803e+002
7.600280e+002,7.005110e+002
7.619565e+002,6.859037e+002
7.638849e+002,6.791362e+002
7.658134e+002,6.904462e+002
7.677419e+002,6.991185e+002
7.696703e+002,6.972401e+002
7.715988e+002,6.844543e+002
7.735273e+002,6.731083e+002
7.754557e+002,6.621797e+002
7.773842e+002,6.538384e+002
7.793127e+002,6.503947e+002
7.812411e+002,6.515650e+002
7.831696e+002,6.515604e+002
7.850981e+002,6.467714e+002
7.870266e+002,6.437631e+002
7.889550e+002,6.474083e+002
7.908835e+002,6.598068e+002
7.928120e+002,6.653900e+002
7.947404e+002,6.565377e+002
7.966689e+002,6.472169e+002
7.985974e+002,6.466904e+002
8.005258e+002,6.548896e+002
8.024543e+002,6.592185e+002
8.043828e+002,6.524563e+002
8.063112e+002,6.446941e+002
8.082397e+002,6.416487e+002
8.101682e+002,6.451436e+002
8.120966e+002,6.470546e+002
8.140251e+002,6.464411e+002
8.159536e+002,6.451150e+002
8.178820e+002,6.422255e+002
8.198105e+002,6.374994e+002
8.217390e+002,6.414797e+002
8.236674e+002,6.669458e+002
8.255959e+002,6.945266e+002
8.275244e+002,7.129071e+002
8.294528e+002,7.188556e+002
8.313813e+002,7.229932e+002
8.333098e+002,7.251587e+002
8.352382e+002,7.254183e+002
8.371667e+002,7.220547e+002
8.390952e+002,7.146514e+002
8.410236e+002,7.113192e+002
8.429521e+002,7.151093e+002
8.448806e+002,7.226532e+002
8.468090e+002,7.317495e+002
8.487375e+002,7.418698e+002
8.506660e+002,7.553000e+002
8.525944e+002,7.763596e+002
8.545229e+002,7.973209e+002
8.564514e+002,8.092663e+002
8.583798e+002,8.112883e+002
8.603083e+002,8.225981e+002
8.622368e+002,8.617939e+002
8.641652e+002,8.971499e+002
8.660937e+002,9.089992e+002
8.680222e+002,8.948411e+002
8.699506e+002,8.671044e+002
8.718791e+002,8.111729e+002
8.738076e+002,7.555640e+002
8.757360e+002,7.196885e+002
8.776645e+002,7.058892e+002
8.795930e+002,6.944893e+002
8.815214e+002,6.841594e+002
8.834499e+002,6.766770e+002
8.853784e+002,6.732870e+002
8.873068e+002,6.739866e+002
8.892353e+002,6.761245e+002
8.911638e+002,6.790360e+002
8.930922e+002,6.832498e+002
8.950207e+002,6.900747e+002
8.969492e+002,6.999193e+002
8.988776e+002,7.051311e+002
9.008061e+002,7.011006e+002
9.027346e+002,6.967050e+002
9.046630e+002,6.977571e+002
9.065915e+002,7.029011e+002
9.085200e+002,7.047153e+002
9.104484e+002,7.000864e+002
9.123769e+002,6.961108e+002
9.143054e+002,6.970063e+002
9.162338e+002,7.026507e+002
9.181623e+002,7.048976e+002
9.200908e+002,6.989153e+002
9.220192e+002,6.951238e+002
9.239477e+002,6.993237e+002
9.258762e+002,7.082734e+002
9.278046e+002,7.104814e+002
9.297331e+002,6.997336e+002
9.316616e+002,6.918730e+002
9.335900e+002,6.941920e+002
9.355185e+002,7.035959e+002
9.374470e+002,7.121031e+002
9.393754e+002,7.233845e+002
9.413039e+002,7.287202e+002
9.432324e+002,7.211987e+002
9.451608e+002,7.084064e+002
9.470893e+002,7.072353e+002
9.490178e+002,7.241790e+002
9.509462e+002,7.341291e+002
9.528747e+002,7.237303e+002
9.548032e+002,7.068789e+002
9.567316e+002,6.990028e+002
9.586601e+002,7.022167e+002
9.605886e+002,7.074746e+002
9.625170e+002,7.151968e+002
9.644455e+002,7.227404e+002
9.663740e+002,7.276537e+002
9.683024e+002,7.287108e+002
9.702309e+002,7.297704e+002
9.721594e+002,7.287101e+002
9.740878e+002,7.291696e+002
9.760163e+002,7.360059e+002
9.779448e+002,7.484390e+002
9.798733e+002,7.547285e+002
9.818018e+002,7.460215e+002
9.837302e+002,7.390931e+002
9.856587e+002,7.410168e+002
9.875872e+002,7.517992e+002
9.895156e+002,7.689939e+002
9.914441e+002,7.833513e+002
9.933726e+002,8.139979e+002
9.953010e+002,8.874708e+002
9.972295e+002,9.848051e+002
9.991580e+002,1.037239e+003
1.001086e+003,1.037177e+003
1.003015e+003,1.011322e+003
1.004943e+003,9.485379e+002
1.006872e+003,8.709561e+002
1.008800e+003,8.128569e+002
1.010729e+003,7.780195e+002
1.012657e+003,7.544940e+002
1.014586e+003,7.443610e+002
1.016514e+003,7.405587e+002
1.018443e+003,7.358600e+002
1.020371e+003,7.297896e+002
1.022300e+003,7.240468e+002
1.024228e+003,7.164274e+002
1.026156e+003,7.112102e+002
1.028085e+003,7.133287e+002
1.030013e+003,7.219969e+002
1.031942e+003,7.282348e+002
1.033870e+003,7.295949e+002
1.035799e+003,7.297690e+002
1.037727e+003,7.302610e+002
1.039656e+003,7.309196e+002
1.041584e+003,7.310064e+002
1.043513e+003,7.283220e+002
1.045441e+003,7.273936e+002
1.047370e+003,7.283263e+002
1.049298e+003,7.318881e+002
1.051227e+003,7.403564e+002
1.053155e+003,7.554162e+002
1.055083e+003,7.705022e+002
1.057012e+003,7.871277e+002
1.058940e+003,8.011800e+002
1.060869e+003,8.075430e+002
1.062797e+003,8.045117e+002
1.064726e+003,8.036688e+002
1.066654e+003,8.118403e+002
1.068583e+003,8.177881e+002
1.070511e+003,8.137605e+002
1.072440e+003,7.984234e+002
1.074368e+003,7.864997e+002
1.076297e+003,7.790480e+002
1.078225e+003,7.738979e+002
1.080154e+003,7.734462e+002
1.082082e+003,7.752329e+002
1.084010e+003,7.696739e+002
1.085939e+003,7.492932e+002
1.087867e+003,7.416981e+002
1.089796e+003,7.692793e+002
1.091724e+003,8.078536e+002
1.093653e+003,8.283299e+002
1.095581e+003,8.235104e+002
1.097510e+003,8.220345e+002
1.099438e+003,8.290441e+002
1.101367e+003,8.380200e+002
1.103295e+003,8.449793e+002
1.105224e+003,8.498880e+002
1.107152e+003,8.562443e+002
1.109081e+003,8.744743e+002
1.111009e+003,8.836991e+002
1.112938e+003,8.698033e+002
1.114866e+003,8.421308e+002
1.116794e+003,8.216399e+002
1.118723e+003,8.093022e+002
1.120651e+003,8.019515e+002
1.122580e+003,8.009835e+002
1.124508e+003,8.028184e+002
1.126437e+003,8.043757e+002
1.128365e+003,8.059343e+002
1.130294e+003,8.066282e+002
1.132222e+003,8.027833e+002
1.134151e+003,8.022149e+002
1.136079e+003,8.125985e+002
1.138008e+003,8.329151e+002
1.139936e+003,8.444688e+002
1.141865e+003,8.425629e+002
1.143793e+003,8.385164e+002
1.145721e+003,8.305984e+002
1.147650e+003,8.242267e+002
1.149578e+003,8.294120e+002
1.151507e+003,8.497054e+002
1.153435e+003,8.651583e+002
1.155364e+003,8.724020e+002
1.157292e+003,8.722113e+002
1.159221e+003,8.621939e+002
1.161149e+003,8.402576e+002
1.163078e+003,8.270038e+002
1.165006e+003,8.308480e+002
1.166935e+003,8.336931e+002
1.168863e+003,8.267197e+002
1.170792e+003,8.148515e+002
1.172720e+003,8.127035e+002
1.174648e+003,8.244023e+002
1.176577e+003,8.330652e+002
1.178505e+003,8.313488e+002
1.180434e+003,8.277148e+002
1.182362e+003,8.304778e+002
1.184291e+003,8.392169e+002
1.186219e+003,8.435748e+002
1.188148e+003,8.361078e+002
1.190076e+003,8.326479e+002
1.192005e+003,8.448388e+002
1.193933e+003,8.663690e+002
1.195862e+003,8.756271e+002
1.197790e+003,8.633803e+002
1.199719e+003,8.533137e+002
1.201647e+003,8.479602e+002
1.203575e+003,8.451396e+002
1.205504e+003,8.425938e+002
1.207432e+003,8.399658e+002
1.209361e+003,8.399088e+002
1.211289e+003,8.404521e+002
1.213218e+003,8.459088e+002
1.215146e+003,8.589632e+002
1.217075e+003,8.785245e+002
1.219003e+003,9.049055e+002
1.220932e+003,9.431633e+002
1.222860e+003,9.705889e+002
1.224789e+003,9.803630e+002
1.226717e+003,9.770675e+002
1.228646e+003,9.575427e+002
1.230574e+003,9.182484e+002
1.232502e+003,8.955740e+002
1.234431e+003,9.063761e+002
1.236359e+003,9.146138e+002
1.238288e+003,9.064655e+002
1.240216e+003,8.904309e+002
1.242145e+003,8.849075e+002
1.244073e+003,8.963514e+002
1.246002e+003,9.026396e+002
1.247930e+003,9.023029e+002
1.249859e+003,8.968540e+002
1.251787e+003,8.827370e+002
1.253716e+003,8.633043e+002
1.255644e+003,8.537874e+002
1.257573e+003,8.577505e+002
1.259501e+003,8.654006e+002
1.261429e+003,8.769758e+002
1.263358e+003,8.880001e+002
1.265286e+003,8.921387e+002
1.267215e+003,8.875833e+002
1.269143e+003,8.860272e+002
1.271072e+003,8.923350e+002
1.273000e+003,8.978034e+002
1.274929e+003,8.988212e+002
1.276857e+003,8.965916e+002
1.278786e+003,8.949606e+002
1.280714e+003,8.957256e+002
1.282643e+003,8.951221e+002
1.284571e+003,8.896724e+002
1.286500e+003,8.860488e+002
1.288428e+003,8.911798e+002
1.290356e+003,9.043344e+002
1.292285e+003,9.139852e+002
1.294213e+003,9.180786e+002
1.296142e+003,9.215688e+002
1.298070e+003,9.233291e+002
1.299999e+003,9.268354e+002
1.301927e+003,9.379288e+002
1.303856e+003,9.572850e+002
1.305784e+003,9.707263e+002
1.307713e+003,9.744316e+002
1.309641e+003,9.739225e+002
1.311570e+003,9.657712e+002
1.313498e+003,9.561636e+002
1.315427e+003,9.620964e+002
1.317355e+003,9.904127e+002
1.319283e+003,1.020085e+003
1.321212e+003,1.048809e+003
1.323140e+003,1.078672e+003
1.325069e+003,1.114434e+003
1.326997e+003,1.154512e+003
1.328926e+003,1.182214e+003
1.330854e+003,1.202890e+003
1.332783e+003,1.204265e+003
1.334711e+003,1.164466e+003
1.336640e+003,1.118345e+003
1.338568e+003,1.095398e+003
1.340497e+003,1.095071e+003
1.342425e+003,1.120691e+003
1.344354e+003,1.187873e+003
1.346282e+003,1.252354e+003
1.348210e+003,1.324115e+003
1.350139e+003,1.367403e+003
1.352068e+003,1.325557e+003
1.353996e+003,1.191829e+003
1.355924e+003,1.080815e+003
1.357853e+003,1.010916e+003
1.359781e+003,9.633994e+002
1.361710e+003,9.369411e+002
1.363638e+003,9.250554e+002
1.365567e+003,9.157444e+002
1.367495e+003,9.107771e+002
1.369424e+003,9.039162e+002
1.371352e+003,8.886564e+002
1.373281e+003,8.787432e+002
1.375209e+003,8.823722e+002
1.377138e+003,8.966429e+002
1.379066e+003,9.121988e+002
1.380995e+003,9.319414e+002
1.382923e+003,9.468737e+002
1.384851e+003,9.586723e+002
1.386780e+003,9.625882e+002
1.388708e+003,9.491839e+002
1.390637e+003,9.240167e+002
1.392565e+003,9.110857e+002
1.394494e+003,9.131359e+002
1.396422e+003,9.193801e+002
1.398351e+003,9.321162e+002
1.400279e+003,9.442520e+002
1.402208e+003,9.442228e+002
1.404136e+003,9.386202e+002
1.406065e+003,9.545625e+002
1.407993e+003,1.001095e+003
1.409922e+003,1.045809e+003
1.411850e+003,1.088193e+003
1.413778e+003,1.117289e+003
1.415707e+003,1.124874e+003
1.417635e+003,1.112245e+003
1.419564e+003,1.088625e+003
1.421492e+003,1.047706e+003
1.423421e+003,1.009060e+003
1.425349e+003,9.658926e+002
1.427278e+003,9.342206e+002
1.429206e+003,9.307921e+002
1.431135e+003,9.548864e+002
1.433063e+003,9.755493e+002
1.434992e+003,9.927090e+002
1.436920e+003,1.005327e+003
1.438849e+003,1.015377e+003
1.440777e+003,1.019363e+003
1.442705e+003,1.008575e+003
1.444634e+003,9.849278e+002
1.446562e+003,9.817513e+002
1.448491e+003,1.018585e+003
1.450419e+003,1.041240e+003
1.452348e+003,1.031338e+003
1.454276e+003,1.010912e+003
1.456205e+003,9.968736e+002
1.458133e+003,9.878311e+002
1.460062e+003,9.760493e+002
1.461990e+003,9.586953e+002
1.463919e+003,9.454406e+002
1.465847e+003,9.330967e+002
1.467776e+003,9.312224e+002
1.469704e+003,9.521926e+002
1.471632e+003,9.897707e+002
1.473561e+003,1.024985e+003
1.475489e+003,1.060067e+003
1.477418e+003,1.081101e+003
1.479346e+003,1.078736e+003
1.481275e+003,1.066029e+003
1.483203e+003,1.047530e+003
1.485132e+003,1.025089e+003
1.487060e+003,1.005879e+003
1.488989e+003,9.886609e+002
1.490917e+003,9.792932e+002
1.492846e+003,9.894466e+002
1.494774e+003,9.973076e+002
1.496703e+003,9.880131e+002
1.498631e+003,9.690760e+002
1.500559e+003,9.637678e+002
1.502488e+003,9.807755e+002
1.504416e+003,9.865916e+002
1.506345e+003,9.608650e+002
1.508273e+003,9.438640e+002
1.510202e+003,9.644797e+002
1.512130e+003,1.000030e+003
1.514059e+003,1.004539e+003
1.515987e+003,9.613970e+002
1.517916e+003,9.399915e+002
1.519844e+003,9.501948e+002
1.521773e+003,9.683073e+002
1.523701e+003,9.953035e+002
1.525630e+003,1.021720e+003
1.527558e+003,1.033811e+003
1.529486e+003,1.029487e+003
1.531415e+003,1.024186e+003
1.533343e+003,1.014002e+003
1.535272e+003,1.007107e+003
1.537200e+003,9.938331e+002
1.539129e+003,9.934013e+002
1.541057e+003,1.031547e+003
1.542986e+003,1.103424e+003
1.544914e+003,1.163651e+003
1.546843e+003,1.217065e+003
1.548771e+003,1.249024e+003
1.550700e+003,1.249211e+003
1.552628e+003,1.234574e+003
1.554557e+003,1.205302e+003
1.556485e+003,1.169910e+003
1.558413e+003,1.150599e+003
1.560342e+003,1.148199e+003
1.562270e+003,1.154962e+003
1.564199e+003,1.175003e+003
1.566127e+003,1.195861e+003
1.568056e+003,1.219965e+003
1.569984e+003,1.236760e+003
1.571913e+003,1.231078e+003
1.573841e+003,1.203904e+003
1.575770e+003,1.172463e+003
1.577698e+003,1.134303e+003
1.579627e+003,1.102509e+003
1.581555e+003,1.081751e+003
1.583484e+003,1.069594e+003
1.585412e+003,1.065644e+003
1.587340e+003,1.068441e+003
1.589269e+003,1.072850e+003
1.591197e+003,1.080162e+003
1.593126e+003,1.082381e+003
1.595054e+003,1.069896e+003
1.596983e+003,1.061593e+003
1.598911e+003,1.073459e+003
1.600840e+003,1.093648e+003
1.602768e+003,1.095371e+003
1.604697e+003,1.075853e+003
1.606625e+003,1.073979e+003
1.608554e+003,1.110331e+003
1.610482e+003,1.134945e+003
1.612411e+003,1.127984e+003
1.614339e+003,1.105285e+003
1.616267e+003,1.072347e+003
1.618196e+003,1.032726e+003
1.620124e+003,1.017920e+003
1.622053e+003,1.038197e+003
1.623981e+003,1.055464e+003
1.625910e+003,1.064905e+003
1.627838e+003,1.065971e+003
1.629767e+003,1.049194e+003
1.631695e+003,1.026328e+003
1.633624e+003,1.022199e+003
1.635552e+003,1.039781e+003
1.637481e+003,1.053031e+003
1.639409e+003,1.064736e+003
1.641338e+003,1.064923e+003
1.643266e+003,1.041926e+003
1.645194e+003,1.016230e+003
1.647123e+003,1.001340e+003
1.649051e+003,9.972764e+002
1.650980e+003,1.005668e+003
1.652908e+003,1.031450e+003
1.654837e+003,1.053669e+003
1.656765e+003,1.071764e+003
1.658694e+003,1.082807e+003
1.660622e+003,1.082471e+003
1.662551e+003,1.076891e+003
1.664479e+003,1.076606e+003
1.666408e+003,1.083179e+003
1.668336e+003,1.072927e+003
1.670265e+003,1.030680e+003
1.672193e+003,1.003423e+003
1.674121e+003,9.996776e+002
1.676050e+003,1.009683e+003
1.677978e+003,1.038745e+003
1.679907e+003,1.074011e+003
1.681835e+003,1.087013e+003
1.683764e+003,1.071567e+003
1.685692e+003,1.060458e+003
1.687621e+003,1.051836e+003
1.689549e+003,1.051526e+003
1.691478e+003,1.074777e+003
1.693406e+003,1.093699e+003
1.695335e+003,1.082859e+003
1.697263e+003,1.052752e+003
1.699192e+003,1.036424e+003
1.701120e+003,1.035565e+003
1.703048e+003,1.042561e+003
1.704977e+003,1.067402e+003
1.706905e+003,1.084438e+003
1.708834e+003,1.080521e+003
1.710762e+003,1.071108e+003
1.712691e+003,1.067150e+003
1.714619e+003,1.069102e+003
1.716548e+003,1.082180e+003
1.718476e+003,1.116313e+003
1.720405e+003,1.130671e+003
1.722333e+003,1.107296e+003
1.724262e+003,1.084036e+003
1.726190e+003,1.069167e+003
1.728119e+003,1.061300e+003
1.730047e+003,1.058812e+003
1.731975e+003,1.061701e+003
1.733904e+003,1.074166e+003
1.735832e+003,1.103628e+003
1.737761e+003,1.116879e+003
1.739689e+003,1.099229e+003
1.741618e+003,1.080278e+003
1.743546e+003,1.063238e+003
1.745475e+003,1.054747e+003
1.747403e+003,1.067291e+003
1.749332e+003,1.096445e+003
1.751260e+003,1.107445e+003
1.753189e+003,1.093148e+003
1.755117e+003,1.091293e+003
1.757046e+003,1.122479e+003
1.758974e+003,1.143634e+003
1.760902e+003,1.126740e+003
1.762831e+003,1.104824e+003
1.764759e+003,1.112531e+003
1.766688e+003,1.141628e+003
1.768616e+003,1.152135e+003
1.770545e+003,1.138572e+003
1.772473e+003,1.132713e+003
1.774402e+003,1.142660e+003
1.776330e+003,1.153028e+003
1.778259e+003,1.156802e+003
1.780187e+003,1.159250e+003
1.782116e+003,1.168061e+003
1.784044e+003,1.178671e+003
1.785973e+003,1.177122e+003
1.787901e+003,1.162849e+003
1.789829e+003,1.146291e+003
1.791758e+003,1.124805e+003
1.793686e+003,1.111359e+003
1.795615e+003,1.113851e+003
1.797543e+003,1.122267e+003
1.799472e+003,1.135707e+003
1.801400e+003,1.147542e+003
1.803329e+003,1.141235e+003
1.805257e+003,1.117386e+003
1.807186e+003,1.104910e+003
1.809114e+003,1.110087e+003
1.811043e+003,1.115421e+003
1.812971e+003,1.111553e+003
1.814900e+003,1.111928e+003
1.816828e+003,1.133281e+003
1.818756e+003,1.158062e+003
1.820685e+003,1.158737e+003
1.822613e+003,1.138677e+003
1.824542e+003,1.122892e+003
1.826470e+003,1.112230e+003
1.828399e+003,1.104794e+003
1.830327e+003,1.098437e+003
1.832256e+003,1.097458e+003
1.834184e+003,1.107953e+003
1.836113e+003,1.120856e+003
1.838041e+003,1.127791e+003
1.839970e+003,1.130412e+003
1.841898e+003,1.133991e+003
1.843827e+003,1.139948e+003
1.845755e+003,1.142900e+003
1.847684e+003,1.137544e+003
1.849612e+003,1.136505e+003
1.851541e+003,1.145744e+003
1.853469e+003,1.154741e+003
1.855397e+003,1.151452e+003
1.857326e+003,1.145785e+003
1.859254e+003,1.160282e+003
1.861183e+003,1.195350e+003
1.863111e+003,1.204563e+003
1.865040e+003,1.169945e+003
1.866968e+003,1.150153e+003
1.868897e+003,1.164276e+003
1.870825e+003,1.174341e+003
1.872754e+003,1.164466e+003
1.874682e+003,1.150742e+003
1.876611e+003,1.145028e+003
1.878539e+003,1.146362e+003
1.880468e+003,1.155894e+003
1.882396e+003,1.174989e+003
1.884324e+003,1.174831e+003
1.886253e+003,1.142543e+003
1.888181e+003,1.122407e+003
1.890110e+003,1.131891e+003
1.892038e+003,1.145301e+003
1.893967e+003,1.149562e+003
1.895895e+003,1.151066e+003
1.897824e+003,1.157858e+003
1.899752e+003,1.167301e+003
1.901681e+003,1.169591e+003
1.903609e+003,1.164138e+003
1.905538e+003,1.164320e+003
1.907466e+003,1.177304e+003
1.909395e+003,1.182714e+003
1.911323e+003,1.158065e+003
1.913251e+003,1.143407e+003
1.915180e+003,1.176724e+003
1.917108e+003,1.221217e+003
1.919037e+003,1.224642e+003
1.920965e+003,1.194414e+003
1.922894e+003,1.177045e+003
1.924822e+003,1.175485e+003
1.926751e+003,1.175465e+003
1.928679e+003,1.173315e+003
1.930608e+003,1.177957e+003
1.932536e+003,1.202814e+003
1.934465e+003,1.221538e+003
1.936393e+003,1.210263e+003
1.938322e+003,1.189658e+003
1.940250e+003,1.190597e+003
1.942178e+003,1.208798e+003
1.944107e+003,1.212923e+003
1.946035e+003,1.197135e+003
1.947964e+003,1.192387e+003
1.949892e+003,1.207815e+003
1.951821e+003,1.220181e+003
1.953749e+003,1.224467e+003
1.955678e+003,1.224896e+003
1.957606e+003,1.223237e+003
1.959535e+003,1.218859e+003
1.961463e+003,1.205050e+003
1.963392e+003,1.188088e+003
1.965320e+003,1.193165e+003
1.967249e+003,1.221147e+003
1.969177e+003,1.234750e+003
1.971105e+003,1.223983e+003
1.973034e+003,1.219706e+003
1.974962e+003,1.234397e+003
1.976891e+003,1.251517e+003
1.978819e+003,1.270701e+003
1.980748e+003,1.282798e+003
1.982676e+003,1.273793e+003
1.984605e+003,1.252124e+003
1.986533e+003,1.237863e+003
1.988462e+003,1.231006e+003
1.990390e+003,1.227812e+003
1.992319e+003,1.228302e+003
1.994247e+003,1.232814e+003
1.996176e+003,1.248248e+003
1.998104e+003,1.258824e+003
2.000032e+003,1.259659e+003
2.001961e+003,1.255583e+003
2.003889e+003,1.243771e+003
2.005818e+003,1.232016e+003
2.007746e+003,1.232891e+003
2.009675e+003,1.244296e+003
2.011603e+003,1.255826e+003
2.013532e+003,1.267590e+003
2.015460e+003,1.276707e+003
2.017389e+003,1.283907e+003
2.019317e+003,1.286510e+003
2.021246e+003,1.280015e+003
2.023174e+003,1.275944e+003
2.025103e+003,1.282828e+003
2.027031e+003,1.291420e+003
2.028959e+003,1.294688e+003
2.030888e+003,1.293254e+003
2.032816e+003,1.286342e+003
2.034745e+003,1.274577e+003
2.036673e+003,1.270566e+003
2.038602e+003,1.279888e+003
2.040530e+003,1.281375e+003
2.042459e+003,1.262788e+003
2.044387e+003,1.255161e+003
2.046316e+003,1.274595e+003
2.048244e+003,1.291666e+003
2.050173e+003,1.290727e+003
2.052101e+003,1.283164e+003
2.054030e+003,1.276551e+003
2.055958e+003,1.272553e+003
2.057886e+003,1.277895e+003
2.059815e+003,1.291083e+003
2.061743e+003,1.295112e+003
2.063672e+003,1.287874e+003
2.065600e+003,1.283203e+003
2.067529e+003,1.282379e+003
2.069457e+003,1.286000e+003
2.071386e+003,1.302620e+003
2.073314e+003,1.312027e+003
2.075243e+003,1.295080e+003
2.077171e+003,1.276117e+003
2.079100e+003,1.279140e+003
2.081028e+003,1.294996e+003
2.082957e+003,1.306754e+003
2.084885e+003,1.314528e+003
2.086813e+003,1.320350e+003
2.088742e+003,1.323326e+003
2.090670e+003,1.325832e+003
2.092599e+003,1.331308e+003
2.094527e+003,1.328157e+003
2.096456e+003,1.302733e+003
2.098384e+003,1.286730e+003
2.100313e+003,1.304000e+003
2.102241e+003,1.321244e+003
2.104170e+003,1.314067e+003
2.106098e+003,1.296417e+003
2.108027e+003,1.283008e+003
2.109955e+003,1.274187e+003
2.111884e+003,1.271365e+003
2.113812e+003,1.274440e+003
2.115740e+003,1.281843e+003
2.117669e+003,1.296768e+003
2.119597e+003,1.306082e+003
2.121526e+003,1.301443e+003
2.123454e+003,1.301931e+003
2.125383e+003,1.315730e+003
2.127311e+003,1.329688e+003
2.129240e+003,1.339724e+003
2.131168e+003,1.344096e+003
2.133097e+003,1.337194e+003
2.135025e+003,1.325428e+003
2.136954e+003,1.319869e+003
2.138882e+003,1.320315e+003
2.140811e+003,1.326828e+003
2.142739e+003,1.339732e+003
2.144667e+003,1.348574e+003
2.146596e+003,1.352154e+003
2.148524e+003,1.353777e+003
2.150453e+003,1.352986e+003
2.152381e+003,1.351763e+003
2.154310e+003,1.350673e+003
2.156238e+003,1.348848e+003
2.158167e+003,1.337973e+003
2.160095e+003,1.334213e+003
2.162024e+003,1.365407e+003
2.163952e+003,1.406576e+003
2.165881e+003,1.410381e+003
2.167809e+003,1.383612e+003
2.169738e+003,1.363535e+003
2.171666e+003,1.349761e+003
2.173594e+003,1.343223e+003
2.175523e+003,1.344894e+003
2.177451e+003,1.345264e+003
2.179380e+003,1.341224e+003
2.181308e+003,1.341116e+003
2.183237e+003,1.356775e+003
2.185165e+003,1.364605e+003
2.187094e+003,1.342119e+003
2.189022e+003,1.323246e+003
2.190951e+003,1.339002e+003
2.192879e+003,1.366956e+003
2.194808e+003,1.380364e+003
2.196736e+003,1.381536e+003
2.198665e+003,1.374773e+003
2.200593e+003,1.360094e+003
2.202521e+003,1.354788e+003
2.204450e+003,1.359514e+003
2.206378e+003,1.366150e+003
2.208307e+003,1.376914e+003
2.210235e+003,1.376432e+003
2.212164e+003,1.354538e+003
2.214092e+003,1.339376e+003
2.216021e+003,1.342047e+003
2.217949e+003,1.351642e+003
2.219878e+003,1.370287e+003
2.221806e+003,1.385781e+003
2.223735e+003,1.384445e+003
2.225663e+003,1.376867e+003
2.227592e+003,1.378014e+003
2.229520e+003,1.383802e+003
2.231448e+003,1.381660e+003
2.233377e+003,1.373265e+003
2.235305e+003,1.375683e+003
2.237234e+003,1.389974e+003
2.239162e+003,1.399451e+003
2.241091e+003,1.401753e+003
2.243019e+003,1.408030e+003
2.244948e+003,1.426537e+003
2.246876e+003,1.433797e+003
2.248805e+003,1.412760e+003
2.250733e+003,1.392615e+003
2.252662e+003,1.380852e+003
2.254590e+003,1.376776e+003
2.256519e+003,1.384632e+003
2.258447e+003,1.396235e+003
2.260375e+003,1.409760e+003
2.262304e+003,1.418449e+003
2.264232e+003,1.401696e+003
2.266161e+003,1.371874e+003
2.268089e+003,1.370975e+003
2.270018e+003,1.394960e+003
2.271946e+003,1.404952e+003
2.273875e+003,1.396950e+003
2.275803e+003,1.393634e+003
2.277732e+003,1.400273e+003
2.279660e+003,1.404305e+003
2.281589e+003,1.403343e+003
2.283517e+003,1.403307e+003
2.285446e+003,1.403719e+003
2.287374e+003,1.407472e+003
2.289302e+003,1.413245e+003
2.291231e+003,1.424918e+003
2.293159e+003,1.459803e+003
2.295088e+003,1.484781e+003
2.297016e+003,1.455628e+003
2.298945e+003,1.411301e+003
2.300873e+003,1.408615e+003
2.302802e+003,1.431293e+003
2.304730e+003,1.437366e+003
2.306659e+003,1.429876e+003
2.308587e+003,1.436395e+003
2.310516e+003,1.460682e+003
2.312444e+003,1.464841e+003
2.314373e+003,1.444064e+003
2.316301e+003,1.432631e+003
2.318229e+003,1.435462e+003
2.320158e+003,1.440977e+003
2.322086e+003,1.450703e+003
2.324015e+003,1.454527e+003
2.325943e+003,1.445665e+003
2.327872e+003,1.435760e+003
2.329800e+003,1.422055e+003
2.331729e+003,1.417012e+003
2.333657e+003,1.436688e+003
2.335586e+003,1.457984e+003
2.337514e+003,1.458084e+003
2.339443e+003,1.450117e+003
2.341371e+003,1.450923e+003
2.343300e+003,1.455568e+003
2.345228e+003,1.454141e+003
2.347156e+003,1.449076e+003
2.349085e+003,1.451162e+003
2.351013e+003,1.459289e+003
2.352942e+003,1.447730e+003
2.354870e+003,1.410075e+003
2.356799e+003,1.397606e+003
2.358727e+003,1.421820e+003
2.360656e+003,1.438322e+003
2.362584e+003,1.443638e+003
2.364513e+003,1.446167e+003
2.366441e+003,1.444997e+003
2.368370e+003,1.445528e+003
2.370298e+003,1.448973e+003
2.372227e+003,1.454503e+003
2.374155e+003,1.466653e+003
2.376083e+003,1.474150e+003
2.378012e+003,1.470141e+003
2.379940e+003,1.461117e+003
2.381869e+003,1.445120e+003
2.383797e+003,1.433322e+003
2.385726e+003,1.443119e+003
2.387654e+003,1.459836e+003
2.389583e+003,1.463204e+003
2.391511e+003,1.457810e+003
2.393440e+003,1.448177e+003
2.395368e+003,1.437906e+003
2.397297e+003,1.441536e+003
2.399225e+003,1.457581e+003
2.401154e+003,1.468330e+003
2.403082e+003,1.473564e+003
2.405010e+003,1.471088e+003
2.406939e+003,1.458003e+003
2.408867e+003,1.452738e+003
2.410796e+003,1.457785e+003
2.412724e+003,1.465027e+003
2.414653e+003,1.474536e+003
2.416581e+003,1.481450e+003
2.418510e+003,1.479969e+003
2.420438e+003,1.483541e+003
2.422367e+003,1.503517e+003
2.424295e+003,1.515904e+003
2.426224e+003,1.502974e+003
2.428152e+003,1.493529e+003
2.430081e+003,1.511239e+003
2.432009e+003,1.524730e+003
2.433938e+003,1.509388e+003
2.435866e+003,1.491869e+003
2.437794e+003,1.497188e+003
2.439723e+003,1.508087e+003
2.441651e+003,1.502584e+003
2.443580e+003,1.491703e+003
2.445508e+003,1.494284e+003
2.447437e+003,1.503009e+003
2.449365e+003,1.498573e+003
2.451294e+003,1.486932e+003
2.453222e+003,1.495832e+003
2.455151e+003,1.519128e+003
2.457079e+003,1.526511e+003
2.459008e+003,1.518949e+003
2.460936e+003,1.509969e+003
2.462865e+003,1.499192e+003
2.464793e+003,1.498875e+003
2.466721e+003,1.516068e+003
2.468650e+003,1.518485e+003
2.470578e+003,1.500077e+003
2.472507e+003,1.487588e+003
2.474435e+003,1.482322e+003
2.476364e+003,1.487565e+003
2.478292e+003,1.510365e+003
2.480221e+003,1.524697e+003
2.482149e+003,1.517511e+003
2.484078e+003,1.512824e+003
2.486006e+003,1.523582e+003
2.487935e+003,1.527059e+003
2.489863e+003,1.504002e+003
2.491792e+003,1.490366e+003
2.493720e+003,1.508342e+003
2.495648e+003,1.524114e+003
2.497577e+003,1.514362e+003
2.499505e+003,1.501936e+003
2.501434e+003,1.503900e+003
2.503362e+003,1.507901e+003
2.505291e+003,1.500503e+003
2.507219e+003,1.494041e+003
2.509148e+003,1.505192e+003
2.511076e+003,1.521069e+003
2.513005e+003,1.525187e+003
2.514933e+003,1.523690e+003
2.516862e+003,1.524451e+003
2.518790e+003,1.526366e+003
2.520719e+003,1.527215e+003
2.522647e+003,1.527956e+003
2.524575e+003,1.530459e+003
2.526504e+003,1.535401e+003
2.528432e+003,1.550763e+003
2.530361e+003,1.571531e+003
2.532289e+003,1.563461e+003
2.534218e+003,1.532172e+003
2.536146e+003,1.518523e+003
2.538075e+003,1.523426e+003
2.540003e+003,1.522245e+003
2.541932e+003,1.513550e+003
2.543860e+003,1.511892e+003
2.545789e+003,1.519925e+003
2.547717e+003,1.519013e+003
2.549646e+003,1.507649e+003
2.551574e+003,1.500585e+003
2.553502e+003,1.499093e+003
2.555431e+003,1.502736e+003
2.557359e+003,1.513427e+003
2.559288e+003,1.522306e+003
2.561216e+003,1.526177e+003
2.563145e+003,1.532267e+003
2.565073e+003,1.543159e+003
2.567002e+003,1.549380e+003
2.568930e+003,1.546922e+003
2.570859e+003,1.548761e+003
2.572787e+003,1.563763e+003
2.574716e+003,1.571893e+003
2.576644e+003,1.556907e+003
2.578573e+003,1.551164e+003
2.580501e+003,1.574111e+003
2.582429e+003,1.588766e+003
2.584358e+003,1.585091e+003
2.586287e+003,1.572053e+003
2.588215e+003,1.544636e+003
2.590144e+003,1.524429e+003
2.592072e+003,1.524982e+003
2.594000e+003,1.531252e+003
2.595929e+003,1.540536e+003
2.597857e+003,1.547453e+003
2.599786e+003,1.545678e+003
2.601714e+003,1.544362e+003
2.603643e+003,1.548232e+003
2.605571e+003,1.553585e+003
2.607500e+003,1.561970e+003
2.609428e+003,1.565810e+003
2.611357e+003,1.553079e+003
2.613285e+003,1.541568e+003
2.615214e+003,1.551640e+003
2.617142e+003,1.563188e+003
2.619071e+003,1.556042e+003
2.620999e+003,1.545037e+003
2.622927e+003,1.539915e+003
2.624856e+003,1.540473e+003
2.626784e+003,1.552524e+003
2.628713e+003,1.564243e+003
2.630641e+003,1.557339e+003
2.632570e+003,1.547319e+003
2.634498e+003,1.556467e+003
2.636427e+003,1.570684e+003
2.638355e+003,1.571695e+003
2.640284e+003,1.567951e+003
2.642212e+003,1.569260e+003
2.644141e+003,1.573501e+003
2.646069e+003,1.580629e+003
2.647998e+003,1.585920e+003
2.649926e+003,1.579156e+003
2.651854e+003,1.567147e+003
2.653783e+003,1.558320e+003
2.655711e+003,1.554841e+003
2.657640e+003,1.567766e+003
2.659568e+003,1.583812e+003
2.661497e+003,1.571489e+003
2.663425e+003,1.547968e+003
2.665354e+003,1.549532e+003
2.667282e+003,1.564942e+003
2.669211e+003,1.573158e+003
2.671139e+003,1.575145e+003
2.673068e+003,1.570487e+003
2.674996e+003,1.562718e+003
2.676925e+003,1.558968e+003
2.678853e+003,1.559121e+003
2.680781e+003,1.567251e+003
2.682710e+003,1.577143e+003
2.684638e+003,1.572317e+003
2.686567e+003,1.558219e+003
2.688495e+003,1.542910e+003
2.690424e+003,1.529922e+003
2.692352e+003,1.527131e+003
2.694281e+003,1.533702e+003
2.696209e+003,1.553839e+003
2.698138e+003,1.578537e+003
2.700066e+003,1.580105e+003
2.701995e+003,1.569374e+003
2.703923e+003,1.570822e+003
2.705852e+003,1.578624e+003
2.707780e+003,1.578697e+003
2.709708e+003,1.574323e+003
2.711637e+003,1.575020e+003
2.713565e+003,1.578342e+003
2.715494e+003,1.578313e+003
2.717422e+003,1.577651e+003
2.719351e+003,1.586851e+003
2.721279e+003,1.596902e+003
2.723208e+003,1.583344e+003
2.725136e+003,1.558282e+003
2.727065e+003,1.543849e+003
2.728993e+003,1.538941e+003
2.730922e+003,1.542388e+003
2.732850e+003,1.552267e+003
2.734779e+003,1.568191e+003
2.736707e+003,1.586116e+003
2.738635e+003,1.602912e+003
2.740564e+003,1.613945e+003
2.742492e+003,1.604734e+003
2.744421e+003,1.590326e+003
2.746349e+003,1.598013e+003
2.748278e+003,1.611711e+003
2.750206e+003,1.607994e+003
2.752135e+003,1.594685e+003
2.754063e+003,1.576901e+003
2.755992e+003,1.561774e+003
2.757920e+003,1.561546e+003
2.759849e+003,1.567673e+003
2.761777e+003,1.576855e+003
2.763706e+003,1.581727e+003
2.765634e+003,1.565625e+003
2.767563e+003,1.550245e+003
2.769491e+003,1.564427e+003
2.771419e+003,1.584702e+003
2.773348e+003,1.590545e+003
2.775276e+003,1.589441e+003
2.777205e+003,1.580765e+003
2.779133e+003,1.575772e+003
2.781062e+003,1.591744e+003
2.782990e+003,1.605448e+003
2.784919e+003,1.593353e+003
2.786847e+003,1.579253e+003
2.788776e+003,1.579311e+003
2.790704e+003,1.581004e+003
2.792633e+003,1.581475e+003
2.794561e+003,1.575551e+003
2.796490e+003,1.547774e+003
2.798418e+003,1.534131e+003
2.800346e+003,1.560507e+003
2.802275e+003,1.586023e+003
2.804203e+003,1.585500e+003
2.806132e+003,1.587380e+003
2.808060e+003,1.608462e+003
2.809989e+003,1.622263e+003
2.811917e+003,1.614303e+003
2.813846e+003,1.611931e+003
2.815774e+003,1.629175e+003
2.817703e+003,1.638507e+003
2.819631e+003,1.626114e+003
2.821560e+003,1.615494e+003
2.823488e+003,1.612401e+003
2.825417e+003,1.607768e+003
2.827345e+003,1.597930e+003
2.829273e+003,1.598265e+003
2.831202e+003,1.612625e+003
2.833130e+003,1.635336e+003
2.835059e+003,1.674017e+003
2.836987e+003,1.695792e+003
2.838916e+003,1.695723e+003
2.840844e+003,1.705180e+003
2.842773e+003,1.728196e+003
2.844701e+003,1.737616e+003
2.846630e+003,1.727732e+003
2.848558e+003,1.734501e+003
2.850487e+003,1.760022e+003
2.852415e+003,1.761241e+003
2.854344e+003,1.740507e+003
2.856272e+003,1.722499e+003
2.858200e+003,1.708144e+003
2.860129e+003,1.699202e+003
2.862057e+003,1.693964e+003
2.863986e+003,1.681392e+003
2.865914e+003,1.665095e+003
2.867843e+003,1.658640e+003
2.869771e+003,1.657287e+003
2.871700e+003,1.648871e+003
2.873628e+003,1.638383e+003
2.875557e+003,1.636782e+003
2.877485e+003,1.638794e+003
2.879414e+003,1.637085e+003
2.881342e+003,1.633981e+003
2.883271e+003,1.624362e+003
2.885199e+003,1.624040e+003
2.887127e+003,1.660936e+003
2.889056e+003,1.699200e+003
2.890984e+003,1.697581e+003
2.892913e+003,1.703759e+003
2.894841e+003,1.759017e+003
2.896770e+003,1.812609e+003
2.898698e+003,1.840777e+003
2.900627e+003,1.853558e+003
2.902555e+003,1.852967e+003
2.904484e+003,1.842059e+003
2.906412e+003,1.818737e+003
2.908341e+003,1.793547e+003
2.910269e+003,1.762029e+003
2.912198e+003,1.744615e+003
2.914126e+003,1.743278e+003
2.916054e+003,1.759104e+003
2.917983e+003,1.796562e+003
2.919911e+003,1.820145e+003
2.921840e+003,1.820442e+003
2.923768e+003,1.825347e+003
2.925697e+003,1.835958e+003
2.927625e+003,1.846390e+003
2.929554e+003,1.855341e+003
2.931482e+003,1.842477e+003
2.933411e+003,1.812417e+003
2.935339e+003,1.801521e+003
2.937268e+003,1.807003e+003
2.939196e+003,1.823492e+003
2.941125e+003,1.844182e+003
2.943053e+003,1.854755e+003
2.944981e+003,1.857721e+003
2.946910e+003,1.860437e+003
2.948838e+003,1.854977e+003
2.950767e+003,1.822692e+003
2.952695e+003,1.787330e+003
2.954624e+003,1.766959e+003
2.956552e+003,1.755098e+003
2.958481e+003,1.746006e+003
2.960409e+003,1.745142e+003
2.962338e+003,1.764571e+003
2.964266e+003,1.777009e+003
2.966195e+003,1.768036e+003
2.968123e+003,1.762884e+003
2.970052e+003,1.776571e+003
2.971980e+003,1.783378e+003
2.973908e+003,1.782011e+003
2.975837e+003,1.763776e+003
2.977765e+003,1.722442e+003
2.979694e+003,1.706058e+003
2.981622e+003,1.729198e+003
2.983551e+003,1.722977e+003
2.985479e+003,1.686800e+003
2.987408e+003,1.665387e+003
2.989336e+003,1.656870e+003
2.991265e+003,1.647422e+003
2.993193e+003,1.638097e+003
2.995122e+003,1.632922e+003
2.997050e+003,1.631290e+003
2.998979e+003,1.630384e+003
3.000907e+003,1.633323e+003
3.002835e+003,1.649126e+003
3.004764e+003,1.663499e+003
3.006692e+003,1.654306e+003
3.008621e+003,1.647988e+003
3.010549e+003,1.665946e+003
3.012478e+003,1.683286e+003
3.014406e+003,1.683305e+003
3.016335e+003,1.687458e+003
3.018263e+003,1.706859e+003
3.020192e+003,1.726475e+003
3.022120e+003,1.747382e+003
3.024049e+003,1.753814e+003
3.025977e+003,1.737058e+003
3.027906e+003,1.729218e+003
3.029834e+003,1.732515e+003
3.031762e+003,1.729417e+003
3.033691e+003,1.723877e+003
3.035619e+003,1.760792e+003
3.037548e+003,1.833102e+003
3.039476e+003,1.905842e+003
3.041405e+003,1.985757e+003
3.043333e+003,2.095496e+003
3.045262e+003,2.217390e+003
3.047190e+003,2.366014e+003
3.049119e+003,2.463713e+003
3.051047e+003,2.417972e+003
3.052976e+003,2.300937e+003
3.054904e+003,2.122731e+003
3.056833e+003,1.960426e+003
3.058761e+003,1.847054e+003
3.060689e+003,1.765037e+003
3.062618e+003,1.713041e+003
3.064546e+003,1.689349e+003
3.066475e+003,1.697208e+003
3.068403e+003,1.718772e+003
3.070332e+003,1.758326e+003
3.072260e+003,1.768749e+003
3.074189e+003,1.749237e+003
3.076117e+003,1.742330e+003
3.078046e+003,1.742090e+003
3.079974e+003,1.722750e+003
3.081903e+003,1.694720e+003
3.083831e+003,1.684240e+003
3.085760e+003,1.679768e+003
3.087688e+003,1.662409e+003
3.089616e+003,1.649123e+003
3.091545e+003,1.660537e+003
3.093473e+003,1.671546e+003
3.095402e+003,1.660502e+003
3.097330e+003,1.659130e+003
3.099259e+003,1.684578e+003
3.101187e+003,1.695987e+003
3.103116e+003,1.666526e+003
3.105044e+003,1.657284e+003
3.106973e+003,1.672140e+003
3.108901e+003,1.685100e+003
3.110830e+003,1.694456e+003
3.112758e+003,1.696414e+003
3.114687e+003,1.691193e+003
3.116615e+003,1.674342e+003
3.118543e+003,1.653540e+003
3.120472e+003,1.642566e+003
3.122400e+003,1.639078e+003
3.124329e+003,1.649215e+003
3.126257e+003,1.654268e+003
3.128186e+003,1.634534e+003
3.130114e+003,1.619252e+003
3.132043e+003,1.626001e+003
3.133971e+003,1.634770e+003
3.135900e+003,1.641701e+003
3.137828e+003,1.648274e+003
3.139757e+003,1.654540e+003
3.141685e+003,1.651305e+003
3.143614e+003,1.635927e+003
3.145542e+003,1.631186e+003
3.147470e+003,1.634774e+003
3.149399e+003,1.632659e+003
3.151327e+003,1.627623e+003
3.153256e+003,1.619801e+003
3.155184e+003,1.618353e+003
3.157113e+003,1.647704e+003
3.159041e+003,1.669589e+003
3.160970e+003,1.651063e+003
3.162898e+003,1.627854e+003
3.164827e+003,1.611664e+003
3.166755e+003,1.602265e+003
3.168684e+003,1.602074e+003
3.170612e+003,1.598279e+003
3.172541e+003,1.588660e+003
3.174469e+003,1.586846e+003
3.176397e+003,1.593277e+003
3.178326e+003,1.602326e+003
3.180254e+003,1.612205e+003
3.182183e+003,1.618292e+003
3.184111e+003,1.621249e+003
3.186040e+003,1.620303e+003
3.187968e+003,1.619713e+003
3.189897e+003,1.623855e+003
3.191825e+003,1.629101e+003
3.193754e+003,1.638974e+003
3.195682e+003,1.639461e+003
3.197611e+003,1.623750e+003
3.199539e+003,1.617596e+003
3.201468e+003,1.627331e+003
3.203396e+003,1.624436e+003
3.205324e+003,1.607844e+003
3.207253e+003,1.604307e+003
3.209181e+003,1.608873e+003
3.211110e+003,1.607340e+003
3.213038e+003,1.602773e+003
3.214967e+003,1.596564e+003
3.216895e+003,1.594484e+003
3.218824e+003,1.602208e+003
3.220752e+003,1.612718e+003
3.222681e+003,1.618801e+003
3.224609e+003,1.636598e+003
3.226538e+003,1.676003e+003
3.228466e+003,1.685036e+003
3.230395e+003,1.652664e+003
3.232323e+003,1.644283e+003
3.234251e+003,1.656626e+003
3.236180e+003,1.635417e+003
3.238108e+003,1.603593e+003
3.240037e+003,1.615840e+003
3.241965e+003,1.636986e+003
3.243894e+003,1.621012e+003
3.245822e+003,1.605665e+003
3.247751e+003,1.615877e+003
3.249679e+003,1.623335e+003
3.251608e+003,1.613917e+003
3.253536e+003,1.606803e+003
3.255465e+003,1.602851e+003
3.257393e+003,1.607238e+003
3.259322e+003,1.618862e+003
3.261250e+003,1.612332e+003
3.263178e+003,1.597073e+003
3.265107e+003,1.602474e+003
3.267035e+003,1.618092e+003
3.268964e+003,1.648911e+003
3.270892e+003,1.657937e+003
3.272821e+003,1.597237e+003
3.274749e+003,1.555424e+003
3.276678e+003,1.566232e+003
3.278606e+003,1.585091e+003
3.280535e+003,1.607955e+003
3.282463e+003,1.624529e+003
3.284392e+003,1.634063e+003
3.286320e+003,1.636969e+003
3.288249e+003,1.631229e+003
3.290177e+003,1.596962e+003
3.292105e+003,1.567926e+003
3.294034e+003,1.593131e+003
3.295962e+003,1.618008e+003
3.297891e+003,1.600354e+003
3.299819e+003,1.591311e+003
3.301748e+003,1.605481e+003
3.303676e+003,1.611316e+003
3.305605e+003,1.600461e+003
3.307533e+003,1.605172e+003
3.309462e+003,1.620693e+003
3.311390e+003,1.615441e+003
3.313319e+003,1.600915e+003
3.315247e+003,1.590549e+003
3.317176e+003,1.591286e+003
3.319104e+003,1.621980e+003
3.321032e+003,1.640786e+003
3.322961e+003,1.617698e+003
3.324889e+003,1.602616e+003
3.326818e+003,1.602668e+003
3.328746e+003,1.604769e+003
3.330675e+003,1.608059e+003
3.332603e+003,1.618870e+003
3.334532e+003,1.632085e+003
3.336460e+003,1.629930e+003
3.338389e+003,1.625413e+003
3.340317e+003,1.639057e+003
3.342246e+003,1.646177e+003
3.344174e+003,1.629498e+003
3.346103e+003,1.613793e+003
3.348031e+003,1.603227e+003
3.349959e+003,1.603193e+003
3.351888e+003,1.614342e+003
3.353816e+003,1.625883e+003
3.355745e+003,1.635688e+003
3.357673e+003,1.635122e+003
3.359602e+003,1.632825e+003
3.361530e+003,1.644452e+003
3.363459e+003,1.652851e+003
3.365387e+003,1.641308e+003
3.367316e+003,1.639059e+003
3.369244e+003,1.661110e+003
3.371173e+003,1.658246e+003
3.373101e+003,1.629889e+003
3.375030e+003,1.651926e+003
3.376958e+003,1.707047e+003
3.378886e+003,1.727808e+003
3.380815e+003,1.740971e+003
3.382743e+003,1.772569e+003
3.384672e+003,1.818217e+003
3.386600e+003,1.872328e+003
3.388529e+003,1.948069e+003
3.390457e+003,2.047961e+003
3.392386e+003,2.177300e+003
3.394314e+003,2.335428e+003
3.396243e+003,2.479400e+003
3.398171e+003,2.583536e+003
3.400100e+003,2.591604e+003
3.402028e+003,2.536663e+003
3.403957e+003,2.436333e+003
3.405885e+003,2.315098e+003
3.407813e+003,2.171243e+003
3.409742e+003,2.038800e+003
3.411670e+003,1.919101e+003
3.413599e+003,1.841806e+003
3.415527e+003,1.802097e+003
3.417456e+003,1.758426e+003
3.419384e+003,1.717016e+003
3.421313e+003,1.688879e+003
3.423241e+003,1.674185e+003
3.425170e+003,1.682654e+003
3.427098e+003,1.686453e+003
3.429027e+003,1.675077e+003
3.430955e+003,1.668770e+003
3.432884e+003,1.669607e+003
3.434812e+003,1.663295e+003
3.436740e+003,1.654377e+003
3.438669e+003,1.668841e+003
3.440597e+003,1.682777e+003
3.442526e+003,1.665571e+003
3.444454e+003,1.646681e+003
3.446383e+003,1.638430e+003
3.448311e+003,1.633577e+003
3.450240e+003,1.630060e+003
3.452168e+003,1.630046e+003
3.454097e+003,1.632620e+003
3.456025e+003,1.638754e+003
3.457954e+003,1.642834e+003
3.459882e+003,1.629704e+003
3.461811e+003,1.623824e+003
3.463739e+003,1.648880e+003
3.465667e+003,1.659424e+003
3.467596e+003,1.630766e+003
3.469524e+003,1.616997e+003
3.471453e+003,1.616634e+003
3.473381e+003,1.607961e+003
3.475310e+003,1.601944e+003
3.477238e+003,1.638143e+003
3.479167e+003,1.666687e+003
3.481095e+003,1.637736e+003
3.483024e+003,1.617366e+003
3.484952e+003,1.628323e+003
3.486881e+003,1.636868e+003
3.488809e+003,1.639567e+003
3.490738e+003,1.622942e+003
3.492666e+003,1.601521e+003
3.494594e+003,1.620394e+003
3.496523e+003,1.641926e+003
3.498451e+003,1.634765e+003
3.500380e+003,1.622953e+003
3.502308e+003,1.611665e+003
3.504237e+003,1.604150e+003
3.506165e+003,1.600475e+003
3.508094e+003,1.610478e+003
3.510022e+003,1.627287e+003
3.511951e+003,1.639221e+003
3.513879e+003,1.642882e+003
3.515808e+003,1.630299e+003
3.517736e+003,1.617895e+003
3.519665e+003,1.608210e+003
3.521593e+003,1.613395e+003
3.523521e+003,1.633987e+003
3.525450e+003,1.654983e+003
3.527378e+003,1.667471e+003
3.529307e+003,1.646546e+003
3.531235e+003,1.623439e+003
3.533164e+003,1.620644e+003
3.535092e+003,1.626209e+003
3.537021e+003,1.641993e+003
3.538949e+003,1.650025e+003
3.540878e+003,1.650336e+003
3.542806e+003,1.637611e+003
3.544735e+003,1.624917e+003
3.546663e+003,1.639885e+003
3.548592e+003,1.653316e+003
3.550520e+003,1.648351e+003
3.552448e+003,1.636607e+003
3.554377e+003,1.616224e+003
3.556305e+003,1.617719e+003
3.558234e+003,1.634737e+003
3.560162e+003,1.636793e+003
3.562091e+003,1.631178e+003
3.564019e+003,1.624181e+003
3.565948e+003,1.619248e+003
3.567876e+003,1.617518e+003
3.569805e+003,1.619027e+003
3.571733e+003,1.623559e+003
3.573662e+003,1.632285e+003
3.575590e+003,1.640516e+003
3.577519e+003,1.635306e+003
3.579447e+003,1.623263e+003
3.581376e+003,1.603101e+003
3.583304e+003,1.592848e+003
3.585233e+003,1.598844e+003
3.587161e+003,1.603027e+003
3.589090e+003,1.604587e+003
3.591018e+003,1.612701e+003
3.592947e+003,1.621637e+003
3.594875e+003,1.623181e+003
3.596803e+003,1.622034e+003
3.598732e+003,1.624071e+003
3.600660e+003,1.615748e+003
3.602589e+003,1.595734e+003
3.604517e+003,1.593218e+003
3.606446e+003,1.589102e+003
3.608374e+003,1.477950e+003
3.610303e+003,1.396460e+003
3.612231e+003,1.503869e+003
3.614160e+003,1.580599e+003
3.616088e+003,1.572109e+003
3.618017e+003,1.574145e+003
3.619945e+003,1.591746e+003
3.621874e+003,1.604182e+003
3.623802e+003,1.605972e+003
3.625730e+003,1.578534e+003
3.627659e+003,1.563697e+003
3.629587e+003,1.586499e+003
3.631516e+003,1.596150e+003
3.633444e+003,1.586106e+003
3.635373e+003,1.576137e+003
3.637301e+003,1.571666e+003
3.639230e+003,1.591152e+003
3.641158e+003,1.608546e+003
3.643087e+003,1.607441e+003
3.645015e+003,1.596745e+003
3.646944e+003,1.576733e+003
3.648872e+003,1.576882e+003
3.650801e+003,1.588749e+003
3.652729e+003,1.575844e+003
3.654657e+003,1.565213e+003
3.656586e+003,1.588017e+003
3.658514e+003,1.600860e+003
3.660443e+003,1.593580e+003
3.662371e+003,1.584628e+003
3.664300e+003,1.578406e+003
3.666228e+003,1.594632e+003
3.668157e+003,1.613303e+003
3.670085e+003,1.614218e+003
3.672014e+003,1.608223e+003
3.673942e+003,1.596864e+003
3.675871e+003,1.592068e+003
3.677799e+003,1.593846e+003
3.679728e+003,1.600692e+003
3.681656e+003,1.602656e+003
3.683584e+003,1.576006e+003
3.685513e+003,1.568080e+003
3.687441e+003,1.602880e+003
3.689370e+003,1.602124e+003
3.691298e+003,1.563976e+003
3.693227e+003,1.580916e+003
3.695155e+003,1.612275e+003
3.697084e+003,1.596361e+003
3.699012e+003,1.588480e+003
3.700941e+003,1.616868e+003
3.702869e+003,1.625310e+003
3.704798e+003,1.610259e+003
3.706726e+003,1.619033e+003
3.708655e+003,1.630859e+003
3.710583e+003,1.609649e+003
3.712511e+003,1.593632e+003
3.714440e+003,1.602393e+003
3.716368e+003,1.602492e+003
3.718297e+003,1.591640e+003
3.720225e+003,1.595427e+003
3.722154e+003,1.601646e+003
3.724082e+003,1.591680e+003
3.726011e+003,1.581027e+003
3.727939e+003,1.576532e+003
3.729868e+003,1.570199e+003
3.731796e+003,1.562788e+003
3.733725e+003,1.572148e+003
3.735653e+003,1.583018e+003
3.737582e+003,1.567315e+003
3.739510e+003,1.562939e+003
3.741438e+003,1.592134e+003
3.743367e+003,1.591037e+003
3.745295e+003,1.562525e+003
3.747224e+003,1.563507e+003
3.749152e+003,1.577546e+003
3.751081e+003,1.592351e+003
3.753009e+003,1.595747e+003
3.754938e+003,1.579018e+003
3.756866e+003,1.585725e+003
3.758795e+003,1.606999e+003
3.760723e+003,1.578988e+003
3.762652e+003,1.554232e+003
3.764580e+003,1.599459e+003
3.766509e+003,1.613150e+003
3.768437e+003,1.566110e+003
3.770365e+003,1.561643e+003
3.772294e+003,1.585457e+003
3.774222e+003,1.583411e+003
3.776151e+003,1.572404e+003
3.778079e+003,1.554127e+003
3.780008e+003,1.563872e+003
3.781936e+003,1.607113e+003
3.783865e+003,1.602849e+003
3.785793e+003,1.575326e+003
3.787722e+003,1.573653e+003
3.789650e+003,1.578421e+003
3.791579e+003,1.583170e+003
3.793507e+003,1.578375e+003
3.795436e+003,1.565146e+003
3.797364e+003,1.570364e+003
3.799292e+003,1.579502e+003
3.801221e+003,1.566640e+003
3.803149e+003,1.563475e+003
3.805078e+003,1.587945e+003
3.807006e+003,1.585621e+003
3.808935e+003,1.562795e+003
3.810863e+003,1.549028e+003
3.812792e+003,1.546173e+003
3.814720e+003,1.565208e+003
3.816649e+003,1.571133e+003
3.818577e+003,1.551598e+003
3.820506e+003,1.561001e+003
3.822434e+003,1.581484e+003
3.824363e+003,1.568003e+003
3.826291e+003,1.564932e+003
3.828219e+003,1.601757e+003
3.830148e+003,1.617641e+003
3.832076e+003,1.606804e+003
3.834005e+003,1.582947e+003
3.835933e+003,1.560793e+003
3.837862e+003,1.558431e+003
3.839790e+003,1.560776e+003
3.841719e+003,1.564496e+003
3.843647e+003,1.559020e+003
3.845576e+003,1.547936e+003
3.847504e+003,1.538487e+003
3.849433e+003,1.536349e+003
3.851361e+003,1.554381e+003
3.853290e+003,1.556659e+003
3.855218e+003,1.542017e+003
3.857146e+003,1.534275e+003
3.859075e+003,1.536987e+003
3.861003e+003,1.562528e+003
3.862932e+003,1.580320e+003
3.864860e+003,1.579538e+003
3.866789e+003,1.565509e+003
3.868717e+003,1.547521e+003
3.870646e+003,1.555937e+003
3.872574e+003,1.565375e+003
3.874503e+003,1.556898e+003
3.876431e+003,1.556367e+003
3.878360e+003,1.565966e+003
3.880288e+003,1.580770e+003
3.882217e+003,1.588524e+003
3.884145e+003,1.567434e+003
3.886073e+003,1.544559e+003
3.888002e+003,1.524513e+003
3.889930e+003,1.539706e+003
3.891859e+003,1.568241e+003
3.893787e+003,1.543388e+003
3.895716e+003,1.524646e+003
3.897644e+003,1.547294e+003
3.899573e+003,1.563548e+003
3.901501e+003,1.567869e+003
3.903430e+003,1.556956e+003
3.905358e+003,1.547791e+003
3.907287e+003,1.561196e+003
3.909215e+003,1.572570e+003
3.911144e+003,1.577459e+003
3.913072e+003,1.569822e+003
3.915000e+003,1.555650e+003
3.916929e+003,1.542603e+003
3.918857e+003,1.533689e+003
3.920786e+003,1.533928e+003
3.922714e+003,1.516914e+003
3.924643e+003,1.494513e+003
3.926571e+003,1.512994e+003
3.928500e+003,1.533231e+003
3.930428e+003,1.529352e+003
3.932357e+003,1.530170e+003
3.934285e+003,1.538409e+003
3.936214e+003,1.555125e+003
3.938142e+003,1.564330e+003
3.940071e+003,1.539457e+003
3.941999e+003,1.526743e+003
3.943927e+003,1.537156e+003
3.945856e+003,1.529599e+003
3.947784e+003,1.518603e+003
3.949713e+003,1.531247e+003
3.951641e+003,1.538092e+003
3.953570e+003,1.531191e+003
3.955498e+003,1.515500e+003
3.957427e+003,1.501047e+003
3.959355e+003,1.517778e+003
3.961284e+003,1.535948e+003
3.963212e+003,1.541320e+003
3.965141e+003,1.539341e+003
3.967069e+003,1.533004e+003
3.968998e+003,1.532482e+003
3.970926e+003,1.535906e+003
3.972854e+003,1.546496e+003
3.974783e+003,1.537324e+003
3.976711e+003,1.514965e+003
3.978640e+003,1.568575e+003
3.980568e+003,1.614439e+003
3.982497e+003,1.557245e+003
3.984425e+003,1.516803e+003
3.986354e+003,1.516253e+003
3.988282e+003,1.553133e+003
3.990211e+003,1.585768e+003
3.992139e+003,1.549290e+003
3.994068e+003,1.518547e+003
3.995996e+003,1.510066e+003
3.997925e+003,1.503516e+003
3.999853e+003,1.502328e+003
4.001781e+003,1.512144e+003
4.003710e+003,1.538050e+003
4.005638e+003,1.587240e+003
4.007567e+003,1.567446e+003
4.009495e+003,1.514732e+003
4.011424e+003,1.508891e+003
4.013352e+003,1.512661e+003
4.015281e+003,1.511840e+003
4.017209e+003,1.511496e+003
4.019138e+003,1.510402e+003
4.021066e+003,1.504709e+003
4.022995e+003,1.500672e+003
4.024923e+003,1.500956e+003
4.026852e+003,1.508186e+003
4.028780e+003,1.517994e+003
4.030708e+003,1.511923e+003
4.032637e+003,1.507801e+003
4.034565e+003,1.517357e+003
4.036494e+003,1.516125e+003
4.038422e+003,1.508044e+003
4.040351e+003,1.525141e+003
4.042279e+003,1.535690e+003
4.044208e+003,1.510717e+003
4.046136e+003,1.497710e+003
4.048065e+003,1.496902e+003
4.049993e+003,1.501374e+003
4.051922e+003,1.498928e+003
4.053850e+003,1.476364e+003
4.055779e+003,1.481067e+003
4.057707e+003,1.508118e+003
4.059635e+003,1.514277e+003
4.061564e+003,1.507610e+003
4.063492e+003,1.486794e+003
4.065421e+003,1.483997e+003
4.067349e+003,1.499577e+003
4.069278e+003,1.530446e+003
4.071206e+003,1.546847e+003
4.073135e+003,1.515183e+003
4.075063e+003,1.494729e+003
4.076992e+003,1.487391e+003
4.078920e+003,1.477208e+003
4.080849e+003,1.474886e+003
4.082777e+003,1.486878e+003
4.084706e+003,1.515228e+003
4.086634e+003,1.546718e+003
4.088563e+003,1.517637e+003
4.090491e+003,1.500230e+003
4.092419e+003,1.546468e+003
4.094348e+003,1.532170e+003
4.096276e+003,1.473469e+003
4.098205e+003,1.479686e+003
4.100133e+003,1.490682e+003
4.102062e+003,1.472713e+003
4.103990e+003,1.452844e+003
4.105919e+003,1.440298e+003
4.107847e+003,1.470566e+003
4.109776e+003,1.495033e+003
4.111704e+003,1.480846e+003
4.113633e+003,1.477727e+003
4.115561e+003,1.477947e+003
4.117490e+003,1.451676e+003
4.119418e+003,1.443398e+003
4.121347e+003,1.474418e+003
4.123275e+003,1.473855e+003
4.125204e+003,1.457611e+003
4.127132e+003,1.461733e+003
4.129061e+003,1.470464e+003
4.130989e+003,1.478727e+003
4.132917e+003,1.487955e+003
4.134846e+003,1.494521e+003
4.136774e+003,1.493322e+003
4.138703e+003,1.483897e+003
4.140631e+003,1.465592e+003
4.142560e+003,1.471407e+003
4.144488e+003,1.483426e+003
4.146417e+003,1.482520e+003
4.148345e+003,1.474799e+003
4.150273e+003,1.462443e+003
4.152202e+003,1.466492e+003
4.154130e+003,1.469423e+003
4.156059e+003,1.438882e+003
4.157987e+003,1.457746e+003
4.159916e+003,1.514853e+003
4.161844e+003,1.490711e+003
4.163773e+003,1.455832e+003
4.165701e+003,1.455034e+003
4.167630e+003,1.474194e+003
4.169558e+003,1.498779e+003
4.171487e+003,1.490685e+003
4.173415e+003,1.470023e+003
4.175344e+003,1.442338e+003
4.177272e+003,1.457890e+003
4.179201e+003,1.487574e+003
4.181129e+003,1.465428e+003
4.183058e+003,1.448753e+003
4.184986e+003,1.452023e+003
4.186915e+003,1.470852e+003
4.188843e+003,1.481056e+003
4.190771e+003,1.441449e+003
4.192700e+003,1.432808e+003
4.194628e+003,1.463874e+003
4.196557e+003,1.476345e+003
4.198485e+003,1.476926e+003
4.200414e+003,1.469839e+003
4.202342e+003,1.451597e+003
4.204271e+003,1.431264e+003
4.206199e+003,1.460002e+003
4.208127e+003,1.478121e+003
4.210056e+003,1.450926e+003
4.211984e+003,1.438716e+003
4.213913e+003,1.438993e+003
4.215841e+003,1.448686e+003
4.217770e+003,1.450015e+003
4.219698e+003,1.436130e+003
4.221627e+003,1.451914e+003
4.223555e+003,1.468510e+003
4.225484e+003,1.443314e+003
4.227412e+003,1.432853e+003
4.229341e+003,1.443316e+003
4.231269e+003,1.474819e+003
4.233198e+003,1.493356e+003
4.235126e+003,1.468591e+003
4.237055e+003,1.430292e+003
4.238983e+003,1.404649e+003
4.240912e+003,1.474809e+003
4.242840e+003,1.522969e+003
4.244769e+003,1.506947e+003
4.246697e+003,1.461772e+003
4.248625e+003,1.418870e+003
4.250554e+003,1.416310e+003
