1.159199e+002,1.575294e+002
1.178484e+002,1.841902e+002
1.197769e+002,1.960311e+002
1.217053e+002,1.917298e+002
1.236338e+002,1.896426e+002
1.255623e+002,1.938267e+002
1.274907e+002,1.981711e+002
1.294192e+002,1.981011e+002
1.313477e+002,1.928215e+002
1.332761e+002,1.828788e+002
1.352046e+002,1.652761e+002
1.371331e+002,1.376363e+002
1.390615e+002,1.164912e+002
1.409900e+002,1.043515e+002
1.429185e+002,9.986389e+001
1.448469e+002,1.027089e+002
1.467754e+002,1.247415e+002
1.487039e+002,1.436760e+002
1.506323e+002,1.465217e+002
1.525608e+002,1.318466e+002
1.544893e+002,1.217279e+002
1.564177e+002,1.240065e+002
1.583462e+002,1.355826e+002
1.602747e+002,1.401670e+002
1.622031e+002,1.298122e+002
1.641316e+002,1.210338e+002
1.660601e+002,1.227916e+002
1.679885e+002,1.401294e+002
1.699170e+002,1.557684e+002
1.718455e+002,1.679534e+002
1.737739e+002,1.762747e+002
1.757024e+002,1.793989e+002
1.776309e+002,1.739580e+002
1.795593e+002,1.651926e+002
1.814878e+002,1.576470e+002
1.834163e+002,1.537054e+002
1.853447e+002,1.485337e+002
1.872732e+002,1.384828e+002
1.892017e+002,1.241906e+002
1.911301e+002,1.169448e+002
1.930586e+002,1.235032e+002
1.949871e+002,1.362706e+002
1.969155e+002,1.461839e+002
1.988440e+002,1.517059e+002
2.007725e+002,1.565812e+002
2.027009e+002,1.638739e+002
2.046294e+002,1.748014e+002
2.065579e+002,1.777674e+002
2.084864e+002,1.679082e+002
2.104148e+002,1.495459e+002
2.123433e+002,1.319273e+002
2.142718e+002,1.126556e+002
2.162002e+002,9.666055e+001
2.181287e+002,8.585344e+001
2.200572e+002,8.192151e+001
2.219856e+002,7.931268e+001
2.239141e+002,7.796213e+001
2.258426e+002,7.759326e+001
2.277710e+002,7.746051e+001
2.296995e+002,7.924746e+001
2.316280e+002,7.943961e+001
2.335564e+002,7.651221e+001
2.354849e+002,6.686805e+001
2.374134e+002,5.885948e+001
2.393418e+002,5.307608e+001
2.412703e+002,4.897378e+001
2.431988e+002,4.526448e+001
2.451272e+002,4.178640e+001
2.470557e+002,3.875301e+001
2.489842e+002,3.644080e+001
2.509126e+002,3.533513e+001
2.528411e+002,3.391280e+001
2.547696e+002,3.132411e+001
2.566980e+002,2.818952e+001
2.586265e+002,2.623743e+001
2.605550e+002,2.646132e+001
2.624834e+002,2.725782e+001
2.644119e+002,2.778217e+001
2.663404e+002,2.780025e+001
2.682688e+002,2.844195e+001
2.701973e+002,3.025444e+001
2.721258e+002,3.297283e+001
2.740542e+002,3.567099e+001
2.759827e+002,3.741886e+001
2.779112e+002,3.978389e+001
2.798396e+002,4.413637e+001
2.817681e+002,5.086625e+001
2.836966e+002,5.683076e+001
2.856250e+002,6.287658e+001
2.875535e+002,6.819994e+001
2.894820e+002,6.822598e+001
2.914104e+002,5.984324e+001
2.933389e+002,4.985551e+001
2.952674e+002,4.087682e+001
2.971958e+002,3.238384e+001
2.991243e+002,2.656760e+001
3.010528e+002,2.461579e+001
3.029813e+002,2.548815e+001
3.049097e+002,2.581970e+001
3.068382e+002,2.508471e+001
3.087667e+002,2.436871e+001
3.106951e+002,2.391354e+001
3.126236e+002,2.339754e+001
3.145521e+002,2.428389e+001
3.164805e+002,2.697876e+001
3.184090e+002,3.108405e+001
3.203375e+002,3.570716e+001
3.222659e+002,4.140205e+001
3.241944e+002,4.682694e+001
3.261229e+002,5.147854e+001
3.280513e+002,5.505037e+001
3.299798e+002,5.856026e+001
3.319083e+002,6.324440e+001
3.338367e+002,6.736790e+001
3.357652e+002,6.893265e+001
3.376937e+002,6.744894e+001
3.396221e+002,6.395168e+001
3.415506e+002,5.834727e+001
3.434791e+002,4.996103e+001
3.454075e+002,4.306013e+001
3.473360e+002,3.666800e+001
3.492645e+002,3.243111e+001
3.511929e+002,3.191268e+001
3.531214e+002,3.836182e+001
3.550499e+002,4.231254e+001
3.569783e+002,4.030573e+001
3.589068e+002,3.243654e+001
3.608353e+002,2.686310e+001
3.627637e+002,2.471614e+001
3.646922e+002,2.404271e+001
3.666207e+002,2.354793e+001
3.685491e+002,2.312639e+001
3.704776e+002,2.318362e+001
3.724061e+002,2.378182e+001
3.743345e+002,2.492307e+001
3.762630e+002,2.641058e+001
3.781915e+002,2.806385e+001
3.801199e+002,3.031770e+001
3.820484e+002,3.374395e+001
3.839769e+002,3.985834e+001
3.859053e+002,4.313720e+001
3.878338e+002,4.106837e+001
3.897623e+002,3.663156e+001
3.916907e+002,3.473235e+001
3.936192e+002,3.674379e+001
3.955477e+002,3.890149e+001
3.974761e+002,3.928125e+001
3.994046e+002,3.711706e+001
4.013331e+002,3.799183e+001
4.032615e+002,4.394598e+001
4.051900e+002,5.144655e+001
4.071185e+002,5.778854e+001
4.090469e+002,6.308468e+001
4.109754e+002,6.713893e+001
4.129039e+002,6.872623e+001
4.148323e+002,6.858597e+001
4.167608e+002,7.146588e+001
4.186893e+002,7.832703e+001
4.206177e+002,8.699925e+001
4.225462e+002,9.818001e+001
4.244747e+002,1.131088e+002
4.264032e+002,1.222297e+002
4.283316e+002,1.215447e+002
4.302601e+002,1.152083e+002
4.321886e+002,1.089992e+002
4.341170e+002,9.846761e+001
4.360455e+002,9.441786e+001
4.379740e+002,1.050183e+002
4.399024e+002,1.285792e+002
4.418309e+002,1.451842e+002
4.437594e+002,1.507530e+002
4.456878e+002,1.509949e+002
4.476163e+002,1.491627e+002
4.495448e+002,1.457753e+002
4.514732e+002,1.392406e+002
4.534017e+002,1.267355e+002
4.553302e+002,1.107488e+002
4.572586e+002,9.646378e+001
4.591871e+002,7.743608e+001
4.611156e+002,6.626833e+001
4.630440e+002,6.990359e+001
4.649725e+002,8.806868e+001
4.669010e+002,1.073810e+002
4.688294e+002,1.345246e+002
4.707579e+002,1.569834e+002
4.726864e+002,1.647692e+002
4.746148e+002,1.446044e+002
4.765433e+002,1.240114e+002
4.784718e+002,1.017050e+002
4.804002e+002,8.020374e+001
4.823287e+002,6.535820e+001
4.842572e+002,6.178720e+001
4.861856e+002,5.977072e+001
4.881141e+002,5.443221e+001
4.900426e+002,4.337009e+001
4.919710e+002,3.804031e+001
4.938995e+002,4.183579e+001
4.958280e+002,4.921422e+001
4.977564e+002,5.601021e+001
4.996849e+002,6.359200e+001
5.016134e+002,6.664794e+001
5.035418e+002,6.175945e+001
5.054703e+002,5.105806e+001
5.073988e+002,4.335897e+001
5.093272e+002,3.841918e+001
5.112557e+002,3.610435e+001
5.131842e+002,3.770529e+001
5.151127e+002,4.291310e+001
5.170411e+002,4.702303e+001
5.189696e+002,4.616224e+001
5.208981e+002,4.574774e+001
5.228265e+002,5.073214e+001
5.247550e+002,6.427453e+001
5.266835e+002,7.682092e+001
5.286119e+002,8.795869e+001
5.305404e+002,9.711292e+001
5.324689e+002,1.032495e+002
5.343973e+002,1.048150e+002
5.363258e+002,1.047558e+002
5.382543e+002,1.035532e+002
5.401827e+002,1.010377e+002
5.421112e+002,9.830251e+001
5.440397e+002,9.690783e+001
5.459681e+002,9.386349e+001
5.478966e+002,8.627167e+001
5.498251e+002,7.090530e+001
5.517535e+002,6.218422e+001
5.536820e+002,6.716782e+001
5.556105e+002,7.759073e+001
5.575389e+002,7.955692e+001
5.594674e+002,6.947895e+001
5.613959e+002,5.995755e+001
5.633243e+002,5.535753e+001
5.652528e+002,5.457652e+001
5.671813e+002,5.353250e+001
5.691097e+002,5.195752e+001
5.710382e+002,5.015078e+001
5.729667e+002,4.778821e+001
5.748951e+002,4.472826e+001
5.768236e+002,4.299243e+001
5.787521e+002,4.369327e+001
5.806805e+002,4.525858e+001
5.826090e+002,4.615072e+001
5.845375e+002,4.465598e+001
5.864659e+002,4.602353e+001
5.883944e+002,5.361144e+001
5.903229e+002,6.376767e+001
5.922513e+002,6.931976e+001
5.941798e+002,6.859856e+001
5.961083e+002,6.708740e+001
5.980367e+002,6.582671e+001
5.999652e+002,6.490764e+001
6.018937e+002,6.656987e+001
6.038221e+002,7.026182e+001
6.057506e+002,7.683237e+001
6.076791e+002,8.873188e+001
6.096075e+002,1.059728e+002
6.115360e+002,1.200090e+002
6.134645e+002,1.304015e+002
6.153929e+002,1.362412e+002
6.173214e+002,1.367235e+002
6.192499e+002,1.289480e+002
6.211783e+002,1.209960e+002
6.231068e+002,1.142923e+002
6.250353e+002,1.075163e+002
6.269637e+002,9.803506e+001
6.288922e+002,8.359193e+001
6.308207e+002,7.204141e+001
6.327491e+002,6.592191e+001
6.346776e+002,6.450633e+001
6.366061e+002,6.596537e+001
6.385345e+002,7.487995e+001
6.404630e+002,8.201414e+001
6.423915e+002,8.330706e+001
6.443199e+002,7.934518e+001
6.462484e+002,7.657030e+001
6.481769e+002,7.821774e+001
6.501053e+002,7.835352e+001
6.520338e+002,7.338267e+001
6.539623e+002,6.066137e+001
6.558907e+002,5.040182e+001
6.578192e+002,4.200994e+001
6.597477e+002,3.634306e+001
6.616761e+002,3.512591e+001
6.636046e+002,3.897728e+001
6.655331e+002,4.273460e+001
6.674615e+002,4.521281e+001
6.693900e+002,4.682652e+001
6.713185e+002,4.801870e+001
6.732469e+002,4.993344e+001
6.751754e+002,4.998269e+001
6.771039e+002,4.616894e+001
6.790323e+002,4.023685e+001
6.809608e+002,3.692901e+001
6.828893e+002,3.751210e+001
6.848177e+002,3.862365e+001
6.867462e+002,3.987587e+001
6.886747e+002,4.116448e+001
6.906031e+002,3.940689e+001
6.925316e+002,2.908941e+001
6.944601e+002,2.100640e+001
6.963885e+002,2.139605e+001
6.983170e+002,2.972218e+001
7.002455e+002,3.588540e+001
7.021740e+002,3.807319e+001
7.041024e+002,3.847723e+001
7.060309e+002,3.813941e+001
7.079594e+002,3.653473e+001
7.098878e+002,3.588369e+001
7.118163e+002,3.716835e+001
7.137448e+002,3.875353e+001
7.156732e+002,3.911691e+001
7.176017e+002,3.820524e+001
7.195302e+002,3.708027e+001
7.214586e+002,3.512809e+001
7.233871e+002,3.353886e+001
7.253156e+002,3.370462e+001
7.272440e+002,3.739100e+001
7.291725e+002,3.985411e+001
7.311010e+002,3.967421e+001
7.330294e+002,3.823606e+001
7.349579e+002,3.810748e+001
7.368864e+002,3.990210e+001
7.388149e+002,4.132164e+001
7.407433e+002,4.088169e+001
7.426718e+002,3.955975e+001
7.446003e+002,3.965517e+001
7.465287e+002,4.340572e+001
7.484572e+002,4.597073e+001
7.503857e+002,4.492062e+001
7.523141e+002,4.162616e+001
7.542426e+002,4.192988e+001
7.561711e+002,4.830163e+001
7.580995e+002,5.435632e+001
7.600280e+002,5.490748e+001
7.619565e+002,5.181822e+001
7.638849e+002,5.611932e+001
7.658134e+002,7.845331e+001
7.677419e+002,9.870440e+001
7.696703e+002,1.115858e+002
7.715988e+002,1.164753e+002
7.735273e+002,1.148274e+002
7.754557e+002,1.036150e+002
7.773842e+002,8.914337e+001
7.793127e+002,7.192046e+001
7.812411e+002,5.237871e+001
7.831696e+002,3.969060e+001
7.850981e+002,3.884120e+001
7.870266e+002,4.166592e+001
7.889550e+002,4.564371e+001
7.908835e+002,5.112291e+001
7.928120e+002,5.552628e+001
7.947404e+002,5.943324e+001
7.966689e+002,6.178290e+001
7.985974e+002,6.175227e+001
8.005258e+002,5.936690e+001
8.024543e+002,5.623661e+001
8.043828e+002,5.128872e+001
8.063112e+002,4.663010e+001
8.082397e+002,4.290301e+001
8.101682e+002,3.940857e+001
8.120966e+002,4.005931e+001
8.140251e+002,4.868797e+001
8.159536e+002,5.848569e+001
8.178820e+002,6.328888e+001
8.198105e+002,6.279341e+001
8.217390e+002,6.755664e+001
8.236674e+002,8.256674e+001
8.255959e+002,1.015583e+002
8.275244e+002,1.201972e+002
8.294528e+002,1.346348e+002
8.313813e+002,1.599079e+002
8.333098e+002,2.030745e+002
8.352382e+002,2.518105e+002
8.371667e+002,3.025193e+002
8.390952e+002,3.567211e+002
8.410236e+002,3.904743e+002
8.429521e+002,3.935453e+002
8.448806e+002,3.770864e+002
8.468090e+002,3.459897e+002
8.487375e+002,2.933679e+002
8.506660e+002,2.436156e+002
8.525944e+002,1.937472e+002
8.545229e+002,1.489778e+002
8.564514e+002,1.129126e+002
8.583798e+002,8.498155e+001
8.603083e+002,6.781267e+001
8.622368e+002,6.859847e+001
8.641652e+002,7.504589e+001
8.660937e+002,7.899780e+001
8.680222e+002,7.960014e+001
8.699506e+002,8.165944e+001
8.718791e+002,8.428984e+001
8.738076e+002,8.924194e+001
8.757360e+002,9.694839e+001
8.776645e+002,1.072271e+002
8.795930e+002,1.239209e+002
8.815214e+002,1.549517e+002
8.834499e+002,1.855087e+002
8.853784e+002,2.091977e+002
8.873068e+002,2.263400e+002
8.892353e+002,2.322801e+002
8.911638e+002,2.206559e+002
8.930922e+002,2.022638e+002
8.950207e+002,1.803952e+002
8.969492e+002,1.545246e+002
8.988776e+002,1.286966e+002
9.008061e+002,9.682863e+001
9.027346e+002,7.061302e+001
9.046630e+002,5.806141e+001
9.065915e+002,5.659092e+001
9.085200e+002,5.649683e+001
9.104484e+002,5.598153e+001
9.123769e+002,5.793581e+001
9.143054e+002,6.600196e+001
9.162338e+002,7.967659e+001
9.181623e+002,8.576301e+001
9.200908e+002,7.815942e+001
9.220192e+002,7.052010e+001
9.239477e+002,6.776041e+001
9.258762e+002,6.840701e+001
9.278046e+002,6.732786e+001
9.297331e+002,6.425726e+001
9.316616e+002,5.944284e+001
9.335900e+002,5.040305e+001
9.355185e+002,3.963327e+001
9.374470e+002,3.458377e+001
9.393754e+002,4.199234e+001
9.413039e+002,4.656101e+001
9.432324e+002,4.418434e+001
9.451608e+002,3.794976e+001
9.470893e+002,3.334636e+001
9.490178e+002,2.881837e+001
9.509462e+002,2.932471e+001
9.528747e+002,4.335308e+001
9.548032e+002,5.942420e+001
9.567316e+002,6.378404e+001
9.586601e+002,5.233981e+001
9.605886e+002,4.295860e+001
9.625170e+002,3.969459e+001
9.644455e+002,3.907067e+001
9.663740e+002,3.810712e+001
9.683024e+002,3.611752e+001
9.702309e+002,3.568188e+001
9.721594e+002,3.772316e+001
9.740878e+002,4.061604e+001
9.760163e+002,4.355574e+001
9.779448e+002,4.652318e+001
9.798733e+002,4.865778e+001
9.818018e+002,4.729490e+001
9.837302e+002,4.814799e+001
9.856587e+002,5.498999e+001
9.875872e+002,6.793785e+001
9.895156e+002,7.834341e+001
9.914441e+002,8.805849e+001
9.933726e+002,9.334669e+001
9.953010e+002,9.110432e+001
9.972295e+002,8.309651e+001
9.991580e+002,7.661205e+001
1.001086e+003,7.335478e+001
1.003015e+003,6.815611e+001
1.004943e+003,5.586749e+001
1.006872e+003,4.146944e+001
1.008800e+003,3.318743e+001
1.010729e+003,3.340857e+001
1.012657e+003,3.435456e+001
1.014586e+003,3.477693e+001
1.016514e+003,3.509048e+001
1.018443e+003,3.574559e+001
1.020371e+003,3.686375e+001
1.022300e+003,3.805503e+001
1.024228e+003,3.848229e+001
1.026156e+003,3.964014e+001
1.028085e+003,4.279493e+001
1.030013e+003,4.776451e+001
1.031942e+003,5.334895e+001
1.033870e+003,5.987017e+001
1.035799e+003,6.640952e+001
1.037727e+003,7.301134e+001
1.039656e+003,7.952729e+001
1.041584e+003,8.436942e+001
1.043513e+003,8.676229e+001
1.045441e+003,8.831274e+001
1.047370e+003,9.005023e+001
1.049298e+003,9.104504e+001
1.051227e+003,8.902669e+001
1.053155e+003,8.359125e+001
1.055083e+003,7.686064e+001
1.057012e+003,6.450064e+001
1.058940e+003,5.414313e+001
1.060869e+003,5.440252e+001
1.062797e+003,6.737782e+001
1.064726e+003,7.773172e+001
1.066654e+003,7.989974e+001
1.068583e+003,8.118938e+001
1.070511e+003,8.464684e+001
1.072440e+003,9.011375e+001
1.074368e+003,9.992693e+001
1.076297e+003,1.151464e+002
1.078225e+003,1.328778e+002
1.080154e+003,1.529580e+002
1.082082e+003,1.750058e+002
1.084010e+003,1.982252e+002
1.085939e+003,2.251692e+002
1.087867e+003,2.472952e+002
1.089796e+003,2.632908e+002
1.091724e+003,2.720597e+002
1.093653e+003,2.710707e+002
1.095581e+003,2.586279e+002
1.097510e+003,2.408749e+002
1.099438e+003,2.156265e+002
1.101367e+003,1.881687e+002
1.103295e+003,1.606600e+002
1.105224e+003,1.330186e+002
1.107152e+003,1.096489e+002
1.109081e+003,8.648744e+001
1.111009e+003,7.169791e+001
1.112938e+003,7.230746e+001
1.114866e+003,8.316238e+001
1.116794e+003,9.188483e+001
1.118723e+003,9.622572e+001
1.120651e+003,1.038079e+002
1.122580e+003,1.224626e+002
1.124508e+003,1.423297e+002
1.126437e+003,1.533806e+002
1.128365e+003,1.541724e+002
1.130294e+003,1.501827e+002
1.132222e+003,1.401491e+002
1.134151e+003,1.274956e+002
1.136079e+003,1.117298e+002
1.138008e+003,9.351147e+001
1.139936e+003,8.169134e+001
1.141865e+003,7.553593e+001
1.143793e+003,7.654024e+001
1.145721e+003,9.033535e+001
1.147650e+003,1.099587e+002
1.149578e+003,1.239978e+002
1.151507e+003,1.305239e+002
1.153435e+003,1.396004e+002
1.155364e+003,1.608167e+002
1.157292e+003,1.793995e+002
1.159221e+003,1.862270e+002
1.161149e+003,1.808277e+002
1.163078e+003,1.680643e+002
1.165006e+003,1.402059e+002
1.166935e+003,1.143743e+002
1.168863e+003,9.477399e+001
1.170792e+003,8.107741e+001
1.172720e+003,7.360488e+001
1.174648e+003,7.530511e+001
1.176577e+003,7.460293e+001
1.178505e+003,6.522935e+001
1.180434e+003,5.532096e+001
1.182362e+003,5.150919e+001
1.184291e+003,5.360307e+001
1.186219e+003,5.855479e+001
1.188148e+003,6.928329e+001
1.190076e+003,7.814500e+001
1.192005e+003,8.045834e+001
1.193933e+003,7.848944e+001
1.195862e+003,8.005779e+001
1.197790e+003,9.178669e+001
1.199719e+003,9.630646e+001
1.201647e+003,8.724835e+001
1.203575e+003,7.377624e+001
1.205504e+003,6.323791e+001
1.207432e+003,5.570834e+001
1.209361e+003,5.231096e+001
1.211289e+003,5.783630e+001
1.213218e+003,6.182803e+001
1.215146e+003,5.745499e+001
1.217075e+003,4.912983e+001
1.219003e+003,4.607757e+001
1.220932e+003,5.018441e+001
1.222860e+003,5.334826e+001
1.224789e+003,5.258231e+001
1.226717e+003,5.070303e+001
1.228646e+003,4.957148e+001
1.230574e+003,4.923905e+001
1.232502e+003,4.897291e+001
1.234431e+003,4.746479e+001
1.236359e+003,4.752346e+001
1.238288e+003,5.082284e+001
1.240216e+003,5.598418e+001
1.242145e+003,5.990583e+001
1.244073e+003,6.083487e+001
1.246002e+003,6.502372e+001
1.247930e+003,7.667432e+001
1.249859e+003,8.851176e+001
1.251787e+003,9.658071e+001
1.253716e+003,1.009952e+002
1.255644e+003,1.011415e+002
1.257573e+003,9.475409e+001
1.259501e+003,8.898769e+001
1.261429e+003,8.556259e+001
1.263358e+003,8.465599e+001
1.265286e+003,8.627605e+001
1.267215e+003,9.012666e+001
1.269143e+003,9.847359e+001
1.271072e+003,1.148410e+002
1.273000e+003,1.323525e+002
1.274929e+003,1.514359e+002
1.276857e+003,1.698635e+002
1.278786e+003,1.800758e+002
1.280714e+003,1.804962e+002
1.282643e+003,1.748921e+002
1.284571e+003,1.547214e+002
1.286500e+003,1.356391e+002
1.288428e+003,1.304313e+002
1.290356e+003,1.384777e+002
1.292285e+003,1.488537e+002
1.294213e+003,1.623615e+002
1.296142e+003,1.761896e+002
1.298070e+003,1.905185e+002
1.299999e+003,2.038579e+002
1.301927e+003,2.155171e+002
1.303856e+003,2.256422e+002
1.305784e+003,2.299768e+002
1.307713e+003,2.237866e+002
1.309641e+003,2.171070e+002
1.311570e+003,2.116232e+002
1.313498e+003,2.091199e+002
1.315427e+003,2.140875e+002
1.317355e+003,2.260841e+002
1.319283e+003,2.471837e+002
1.321212e+003,2.928842e+002
1.323140e+003,3.327739e+002
1.325069e+003,3.489878e+002
1.326997e+003,3.423388e+002
1.328926e+003,3.210923e+002
1.330854e+003,2.758129e+002
1.332783e+003,2.320878e+002
1.334711e+003,1.881718e+002
1.336640e+003,1.515657e+002
1.338568e+003,1.312195e+002
1.340497e+003,1.260312e+002
1.342425e+003,1.261000e+002
1.344354e+003,1.337220e+002
1.346282e+003,1.409719e+002
1.348210e+003,1.455347e+002
1.350139e+003,1.475266e+002
1.352068e+003,1.482386e+002
1.353996e+003,1.480187e+002
1.355924e+003,1.398471e+002
1.357853e+003,1.145556e+002
1.359781e+003,9.269137e+001
1.361710e+003,8.387610e+001
1.363638e+003,8.336206e+001
1.365567e+003,8.182901e+001
1.367495e+003,7.865712e+001
1.369424e+003,7.622098e+001
1.371352e+003,7.468243e+001
1.373281e+003,7.387900e+001
1.375209e+003,7.404974e+001
1.377138e+003,7.492812e+001
1.379066e+003,7.537897e+001
1.380995e+003,7.300599e+001
1.382923e+003,7.496268e+001
1.384851e+003,8.592181e+001
1.386780e+003,9.733556e+001
1.388708e+003,1.013152e+002
1.390637e+003,1.009324e+002
1.392565e+003,1.087705e+002
1.394494e+003,1.262662e+002
1.396422e+003,1.473562e+002
1.398351e+003,1.718700e+002
1.400279e+003,1.984175e+002
1.402208e+003,2.267239e+002
1.404136e+003,2.561833e+002
1.406065e+003,2.866071e+002
1.407993e+003,3.224750e+002
1.409922e+003,3.453339e+002
1.411850e+003,3.445915e+002
1.413778e+003,3.334756e+002
1.415707e+003,3.193054e+002
1.417635e+003,3.024600e+002
1.419564e+003,2.856527e+002
1.421492e+003,2.694129e+002
1.423421e+003,2.522881e+002
1.425349e+003,2.303427e+002
1.427278e+003,2.101852e+002
1.429206e+003,1.961143e+002
1.431135e+003,1.881139e+002
1.433063e+003,1.875036e+002
1.434992e+003,1.992188e+002
1.436920e+003,2.116075e+002
1.438849e+003,2.270184e+002
1.440777e+003,2.396603e+002
1.442705e+003,2.470352e+002
1.444634e+003,2.487290e+002
1.446562e+003,2.364854e+002
1.448491e+003,2.016034e+002
1.450419e+003,1.690911e+002
1.452348e+003,1.420308e+002
1.454276e+003,1.199336e+002
1.456205e+003,1.018297e+002
1.458133e+003,8.827531e+001
1.460062e+003,8.357574e+001
1.461990e+003,9.188332e+001
1.463919e+003,9.793980e+001
1.465847e+003,9.703201e+001
1.467776e+003,9.284128e+001
1.469704e+003,8.475897e+001
1.471632e+003,7.538296e+001
1.473561e+003,7.526973e+001
1.475489e+003,8.812161e+001
1.477418e+003,9.895499e+001
1.479346e+003,9.970855e+001
1.481275e+003,1.015552e+002
1.483203e+003,1.141976e+002
1.485132e+003,1.338206e+002
1.487060e+003,1.458752e+002
1.488989e+003,1.487134e+002
1.490917e+003,1.483454e+002
1.492846e+003,1.466032e+002
1.494774e+003,1.411929e+002
1.496703e+003,1.281661e+002
1.498631e+003,1.108580e+002
1.500559e+003,9.916084e+001
1.502488e+003,9.425410e+001
1.504416e+003,9.154923e+001
1.506345e+003,9.404222e+001
1.508273e+003,9.464547e+001
1.510202e+003,8.865289e+001
1.512130e+003,7.950514e+001
1.514059e+003,7.388950e+001
1.515987e+003,7.318005e+001
1.517916e+003,7.182301e+001
1.519844e+003,6.785569e+001
1.521773e+003,6.581396e+001
1.523701e+003,6.840402e+001
1.525630e+003,7.293450e+001
1.527558e+003,7.540630e+001
1.529486e+003,7.527388e+001
1.531415e+003,7.808189e+001
1.533343e+003,8.666903e+001
1.535272e+003,9.412560e+001
1.537200e+003,9.948590e+001
1.539129e+003,1.027951e+002
1.541057e+003,1.027936e+002
1.542986e+003,1.002062e+002
1.544914e+003,1.015513e+002
1.546843e+003,1.100887e+002
1.548771e+003,1.142711e+002
1.550700e+003,1.078177e+002
1.552628e+003,1.001912e+002
1.554557e+003,9.856984e+001
1.556485e+003,1.000802e+002
1.558413e+003,9.592734e+001
1.560342e+003,8.423525e+001
1.562270e+003,7.911174e+001
1.564199e+003,8.725849e+001
1.566127e+003,9.627096e+001
1.568056e+003,1.001532e+002
1.569984e+003,1.014653e+002
1.571913e+003,1.022782e+002
1.573841e+003,1.028256e+002
1.575770e+003,1.090341e+002
1.577698e+003,1.236418e+002
1.579627e+003,1.390906e+002
1.581555e+003,1.565881e+002
1.583484e+003,1.702642e+002
1.585412e+003,1.712033e+002
1.587340e+003,1.639525e+002
1.589269e+003,1.688641e+002
1.591197e+003,1.901377e+002
1.593126e+003,2.102561e+002
1.595054e+003,2.275614e+002
1.596983e+003,2.395386e+002
1.598911e+003,2.451175e+002
1.600840e+003,2.445239e+002
1.602768e+003,2.361437e+002
1.604697e+003,2.190435e+002
1.606625e+003,2.065398e+002
1.608554e+003,2.018437e+002
1.610482e+003,1.988209e+002
1.612411e+003,1.981995e+002
1.614339e+003,1.961228e+002
1.616267e+003,1.863333e+002
1.618196e+003,1.706190e+002
1.620124e+003,1.657932e+002
1.622053e+003,1.779439e+002
1.623981e+003,1.840702e+002
1.625910e+003,1.746224e+002
1.627838e+003,1.635986e+002
1.629767e+003,1.553934e+002
1.631695e+003,1.506850e+002
1.633624e+003,1.526798e+002
1.635552e+003,1.631183e+002
1.637481e+003,1.664659e+002
1.639409e+003,1.564375e+002
1.641338e+003,1.482087e+002
1.643266e+003,1.502858e+002
1.645194e+003,1.513733e+002
1.647123e+003,1.404156e+002
1.649051e+003,1.199191e+002
1.650980e+003,1.042292e+002
1.652908e+003,9.394619e+001
1.654837e+003,8.662156e+001
1.656765e+003,8.418552e+001
1.658694e+003,8.203310e+001
1.660622e+003,7.780383e+001
1.662551e+003,7.356335e+001
1.664479e+003,7.150916e+001
1.666408e+003,7.160058e+001
1.668336e+003,7.513021e+001
1.670265e+003,8.311570e+001
1.672193e+003,9.264620e+001
1.674121e+003,1.057978e+002
1.676050e+003,1.176878e+002
1.677978e+003,1.254577e+002
1.679907e+003,1.301542e+002
1.681835e+003,1.345736e+002
1.683764e+003,1.398413e+002
1.685692e+003,1.385716e+002
1.687621e+003,1.284903e+002
1.689549e+003,1.149232e+002
1.691478e+003,9.182379e+001
1.693406e+003,7.283362e+001
1.695335e+003,7.166535e+001
1.697263e+003,8.229274e+001
1.699192e+003,8.433343e+001
1.701120e+003,7.496819e+001
1.703048e+003,6.735091e+001
1.704977e+003,6.163999e+001
1.706905e+003,5.844583e+001
1.708834e+003,6.026810e+001
1.710762e+003,6.255912e+001
1.712691e+003,6.054852e+001
1.714619e+003,5.536602e+001
1.716548e+003,5.316373e+001
1.718476e+003,5.482578e+001
1.720405e+003,5.665062e+001
1.722333e+003,5.971370e+001
1.724262e+003,6.103140e+001
1.726190e+003,5.835130e+001
1.728119e+003,5.462434e+001
1.730047e+003,5.182994e+001
1.731975e+003,5.023065e+001
1.733904e+003,5.240494e+001
1.735832e+003,6.002280e+001
1.737761e+003,6.570451e+001
1.739689e+003,6.843242e+001
1.741618e+003,6.930190e+001
1.743546e+003,6.731805e+001
1.745475e+003,6.479087e+001
1.747403e+003,6.432624e+001
1.749332e+003,6.551254e+001
1.751260e+003,6.485337e+001
1.753189e+003,6.124995e+001
1.755117e+003,6.056541e+001
1.757046e+003,6.595963e+001
1.758974e+003,7.074221e+001
1.760902e+003,7.310424e+001
1.762831e+003,7.336633e+001
1.764759e+003,7.035603e+001
1.766688e+003,6.527235e+001
1.768616e+003,6.424025e+001
1.770545e+003,6.838700e+001
1.772473e+003,6.997826e+001
1.774402e+003,6.698951e+001
1.776330e+003,6.270589e+001
1.778259e+003,5.487099e+001
1.780187e+003,4.955352e+001
1.782116e+003,5.299104e+001
1.784044e+003,6.249897e+001
1.785973e+003,7.227552e+001
1.787901e+003,8.265644e+001
1.789829e+003,8.466859e+001
1.791758e+003,7.327810e+001
1.793686e+003,6.266679e+001
1.795615e+003,5.799681e+001
1.797543e+003,5.547082e+001
1.799472e+003,5.252395e+001
1.801400e+003,4.976573e+001
1.803329e+003,4.815831e+001
1.805257e+003,4.771889e+001
1.807186e+003,4.914872e+001
1.809114e+003,5.335148e+001
1.811043e+003,5.692654e+001
1.812971e+003,5.975949e+001
1.814900e+003,6.071305e+001
1.816828e+003,5.695906e+001
1.818756e+003,5.224315e+001
1.820685e+003,5.329098e+001
1.822613e+003,5.892817e+001
1.824542e+003,5.894114e+001
1.826470e+003,5.021904e+001
1.828399e+003,4.599065e+001
1.830327e+003,5.284366e+001
1.832256e+003,5.853304e+001
1.834184e+003,5.664783e+001
1.836113e+003,5.336578e+001
1.838041e+003,5.584997e+001
1.839970e+003,6.192436e+001
1.841898e+003,6.290126e+001
1.843827e+003,5.610577e+001
1.845755e+003,5.422847e+001
1.847684e+003,6.385474e+001
1.849612e+003,6.868137e+001
1.851541e+003,6.047311e+001
1.853469e+003,5.233289e+001
1.855397e+003,5.405361e+001
1.857326e+003,6.016978e+001
1.859254e+003,6.106472e+001
1.861183e+003,5.663469e+001
1.863111e+003,5.499079e+001
1.865040e+003,5.808677e+001
1.866968e+003,5.971484e+001
1.868897e+003,5.866034e+001
1.870825e+003,5.719865e+001
1.872754e+003,5.640895e+001
1.874682e+003,5.512463e+001
1.876611e+003,5.037423e+001
1.878539e+003,4.467379e+001
1.880468e+003,4.716736e+001
1.882396e+003,5.867804e+001
1.884324e+003,6.339885e+001
1.886253e+003,5.729404e+001
1.888181e+003,5.302369e+001
1.890110e+003,5.478783e+001
1.892038e+003,5.726516e+001
1.893967e+003,5.606262e+001
1.895895e+003,5.558381e+001
1.897824e+003,6.337121e+001
1.899752e+003,7.537868e+001
1.901681e+003,7.724177e+001
1.903609e+003,6.796038e+001
1.905538e+003,6.165208e+001
1.907466e+003,6.034324e+001
1.909395e+003,6.129203e+001
1.911323e+003,6.664310e+001
1.913251e+003,7.059113e+001
1.915180e+003,6.850848e+001
1.917108e+003,6.418948e+001
1.919037e+003,6.204713e+001
1.920965e+003,6.197723e+001
1.922894e+003,6.358158e+001
1.924822e+003,6.738180e+001
1.926751e+003,7.081073e+001
1.928679e+003,7.629601e+001
1.930608e+003,7.767489e+001
1.932536e+003,6.989573e+001
1.934465e+003,6.225169e+001
1.936393e+003,6.101934e+001
1.938322e+003,6.226357e+001
1.940250e+003,5.992352e+001
1.942178e+003,5.489510e+001
1.944107e+003,5.407093e+001
1.946035e+003,5.862197e+001
1.947964e+003,6.269475e+001
1.949892e+003,6.696742e+001
1.951821e+003,6.878744e+001
1.953749e+003,6.514532e+001
1.955678e+003,6.197400e+001
1.957606e+003,6.354009e+001
1.959535e+003,6.590009e+001
1.961463e+003,6.371075e+001
1.963392e+003,5.876818e+001
1.965320e+003,5.688912e+001
1.967249e+003,5.823573e+001
1.969177e+003,5.993856e+001
1.971105e+003,6.076614e+001
1.973034e+003,6.526017e+001
1.974962e+003,8.113668e+001
1.976891e+003,9.158067e+001
1.978819e+003,8.462836e+001
1.980748e+003,7.277909e+001
1.982676e+003,6.652854e+001
1.984605e+003,6.452143e+001
1.986533e+003,6.380790e+001
1.988462e+003,6.442755e+001
1.990390e+003,6.549393e+001
1.992319e+003,6.737710e+001
1.994247e+003,6.907826e+001
1.996176e+003,7.264320e+001
1.998104e+003,7.313818e+001
2.000032e+003,6.628722e+001
2.001961e+003,5.927530e+001
2.003889e+003,5.538269e+001
2.005818e+003,5.502583e+001
2.007746e+003,6.054126e+001
2.009675e+003,7.059798e+001
2.011603e+003,7.731560e+001
2.013532e+003,8.055432e+001
2.015460e+003,8.040454e+001
2.017389e+003,7.533062e+001
2.019317e+003,7.220197e+001
2.021246e+003,7.441618e+001
2.023174e+003,7.624712e+001
2.025103e+003,7.307165e+001
2.027031e+003,7.012150e+001
2.028959e+003,7.390354e+001
2.030888e+003,8.014123e+001
2.032816e+003,7.953109e+001
2.034745e+003,7.263915e+001
2.036673e+003,6.986761e+001
2.038602e+003,7.425330e+001
2.040530e+003,7.387833e+001
2.042459e+003,6.072855e+001
2.044387e+003,5.486967e+001
2.046316e+003,6.727870e+001
2.048244e+003,7.767804e+001
2.050173e+003,7.416408e+001
2.052101e+003,6.690201e+001
2.054030e+003,6.518021e+001
2.055958e+003,6.707440e+001
2.057886e+003,6.852952e+001
2.059815e+003,6.953905e+001
2.061743e+003,6.933959e+001
2.063672e+003,6.731602e+001
2.065600e+003,7.001727e+001
2.067529e+003,8.187521e+001
2.069457e+003,8.867401e+001
2.071386e+003,8.399782e+001
2.073314e+003,7.636300e+001
2.075243e+003,6.528648e+001
2.077171e+003,5.752001e+001
2.079100e+003,6.283423e+001
2.081028e+003,7.409409e+001
2.082957e+003,7.735519e+001
2.084885e+003,7.311071e+001
2.086813e+003,6.728059e+001
2.088742e+003,5.690792e+001
2.090670e+003,5.435124e+001
2.092599e+003,6.722058e+001
2.094527e+003,7.240336e+001
2.096456e+003,5.842157e+001
2.098384e+003,4.838731e+001
2.100313e+003,5.356891e+001
2.102241e+003,6.204098e+001
2.104170e+003,6.885022e+001
2.106098e+003,7.242365e+001
2.108027e+003,6.715685e+001
2.109955e+003,5.751903e+001
2.111884e+003,5.951869e+001
2.113812e+003,7.321643e+001
2.115740e+003,7.689944e+001
2.117669e+003,6.500240e+001
2.119597e+003,5.735983e+001
2.121526e+003,5.656283e+001
2.123454e+003,5.965239e+001
2.125383e+003,7.101256e+001
2.127311e+003,7.980039e+001
2.129240e+003,7.877914e+001
2.131168e+003,7.476307e+001
2.133097e+003,7.400732e+001
2.135025e+003,7.436378e+001
2.136954e+003,7.164393e+001
2.138882e+003,6.650464e+001
2.140811e+003,6.132945e+001
2.142739e+003,5.620063e+001
2.144667e+003,5.617620e+001
2.146596e+003,6.335373e+001
2.148524e+003,6.763688e+001
2.150453e+003,6.599800e+001
2.152381e+003,6.335705e+001
2.154310e+003,5.809506e+001
2.156238e+003,5.617275e+001
2.158167e+003,6.586277e+001
2.160095e+003,7.500351e+001
2.162024e+003,6.960577e+001
2.163952e+003,5.794073e+001
2.165881e+003,5.416018e+001
2.167809e+003,5.714464e+001
2.169738e+003,6.088059e+001
2.171666e+003,6.537468e+001
2.173594e+003,7.013920e+001
2.175523e+003,7.569131e+001
2.177451e+003,7.799010e+001
2.179380e+003,7.619979e+001
2.181308e+003,7.166244e+001
2.183237e+003,6.010817e+001
2.185165e+003,5.289176e+001
2.187094e+003,5.907928e+001
2.189022e+003,6.661177e+001
2.190951e+003,6.520267e+001
2.192879e+003,6.142048e+001
2.194808e+003,6.499609e+001
2.196736e+003,7.259810e+001
2.198665e+003,7.387379e+001
2.200593e+003,6.911878e+001
2.202521e+003,7.099504e+001
2.204450e+003,8.044869e+001
2.206378e+003,8.429922e+001
2.208307e+003,8.037913e+001
2.210235e+003,7.588861e+001
2.212164e+003,7.141499e+001
2.214092e+003,6.853668e+001
2.216021e+003,6.790688e+001
2.217949e+003,6.884124e+001
2.219878e+003,7.278584e+001
2.221806e+003,7.624206e+001
2.223735e+003,7.548410e+001
2.225663e+003,7.334904e+001
2.227592e+003,7.472466e+001
2.229520e+003,7.742788e+001
2.231448e+003,7.450663e+001
2.233377e+003,6.675451e+001
2.235305e+003,6.207497e+001
2.237234e+003,6.064814e+001
2.239162e+003,6.015994e+001
2.241091e+003,6.069926e+001
2.243019e+003,6.057592e+001
2.244948e+003,5.890207e+001
2.246876e+003,5.785810e+001
2.248805e+003,5.693605e+001
2.250733e+003,5.822181e+001
2.252662e+003,6.519347e+001
2.254590e+003,7.132392e+001
2.256519e+003,7.225713e+001
2.258447e+003,7.065115e+001
2.260375e+003,6.750928e+001
2.262304e+003,6.467364e+001
2.264232e+003,6.695771e+001
2.266161e+003,7.183118e+001
2.268089e+003,6.993493e+001
2.270018e+003,6.242182e+001
2.271946e+003,6.143645e+001
2.273875e+003,6.868739e+001
2.275803e+003,7.089558e+001
2.277732e+003,6.201762e+001
2.279660e+003,5.994183e+001
2.281589e+003,7.427750e+001
2.283517e+003,8.229337e+001
2.285446e+003,7.408244e+001
2.287374e+003,6.806272e+001
2.289302e+003,7.326099e+001
2.291231e+003,7.830639e+001
2.293159e+003,7.569032e+001
2.295088e+003,7.170934e+001
2.297016e+003,7.145827e+001
2.298945e+003,7.331974e+001
2.300873e+003,7.601003e+001
2.302802e+003,7.877449e+001
2.304730e+003,8.045074e+001
2.306659e+003,8.068495e+001
2.308587e+003,7.523749e+001
2.310516e+003,6.245596e+001
2.312444e+003,5.882203e+001
2.314373e+003,6.621036e+001
2.316301e+003,7.167819e+001
2.318229e+003,7.391455e+001
2.320158e+003,7.554616e+001
2.322086e+003,7.830184e+001
2.324015e+003,7.742970e+001
2.325943e+003,6.484617e+001
2.327872e+003,5.792188e+001
2.329800e+003,6.817222e+001
2.331729e+003,7.961118e+001
2.333657e+003,8.329374e+001
2.335586e+003,8.377422e+001
2.337514e+003,8.470498e+001
2.339443e+003,8.481514e+001
2.341371e+003,8.234536e+001
2.343300e+003,7.798016e+001
2.345228e+003,7.245181e+001
2.347156e+003,6.630733e+001
2.349085e+003,5.955406e+001
2.351013e+003,5.287056e+001
2.352942e+003,5.558146e+001
2.354870e+003,6.925498e+001
2.356799e+003,8.300611e+001
2.358727e+003,1.008039e+002
2.360656e+003,1.069187e+002
2.362584e+003,9.708440e+001
2.364513e+003,8.624490e+001
2.366441e+003,7.409483e+001
2.368370e+003,6.792252e+001
2.370298e+003,7.203867e+001
2.372227e+003,7.816906e+001
2.374155e+003,8.638316e+001
2.376083e+003,9.107250e+001
2.378012e+003,8.727677e+001
2.379940e+003,8.145087e+001
2.381869e+003,7.621359e+001
2.383797e+003,7.332511e+001
2.385726e+003,7.573151e+001
2.387654e+003,8.073285e+001
2.389583e+003,8.445821e+001
2.391511e+003,8.794650e+001
2.393440e+003,9.456064e+001
2.395368e+003,1.026012e+002
2.397297e+003,1.046797e+002
2.399225e+003,1.015554e+002
2.401154e+003,1.045311e+002
2.403082e+003,1.147407e+002
2.405010e+003,1.212882e+002
2.406939e+003,1.226703e+002
2.408867e+003,1.288006e+002
2.410796e+003,1.417699e+002
2.412724e+003,1.511328e+002
2.414653e+003,1.536141e+002
2.416581e+003,1.586318e+002
2.418510e+003,1.679386e+002
2.420438e+003,1.809332e+002
2.422367e+003,2.023534e+002
2.424295e+003,2.198487e+002
2.426224e+003,2.287383e+002
2.428152e+003,2.332216e+002
2.430081e+003,2.353197e+002
2.432009e+003,2.337014e+002
2.433938e+003,2.274673e+002
2.435866e+003,2.177567e+002
2.437794e+003,2.033269e+002
2.439723e+003,1.878964e+002
2.441651e+003,1.763114e+002
2.443580e+003,1.656943e+002
2.445508e+003,1.489458e+002
2.447437e+003,1.310922e+002
2.449365e+003,1.250435e+002
2.451294e+003,1.275904e+002
2.453222e+003,1.266696e+002
2.455151e+003,1.232622e+002
2.457079e+003,1.224287e+002
2.459008e+003,1.239365e+002
2.460936e+003,1.230535e+002
2.462865e+003,1.194476e+002
2.464793e+003,1.145741e+002
2.466721e+003,1.058416e+002
2.468650e+003,1.049517e+002
2.470578e+003,1.148344e+002
2.472507e+003,1.204816e+002
2.474435e+003,1.199787e+002
2.476364e+003,1.167324e+002
2.478292e+003,1.094973e+002
2.480221e+003,1.051592e+002
2.482149e+003,1.082382e+002
2.484078e+003,1.099751e+002
2.486006e+003,1.063519e+002
2.487935e+003,1.042882e+002
2.489863e+003,1.073589e+002
2.491792e+003,1.102426e+002
2.493720e+003,1.110021e+002
2.495648e+003,1.110359e+002
2.497577e+003,1.102989e+002
2.499505e+003,1.100865e+002
2.501434e+003,1.116614e+002
2.503362e+003,1.136940e+002
2.505291e+003,1.152317e+002
2.507219e+003,1.165708e+002
2.509148e+003,1.182982e+002
2.511076e+003,1.197465e+002
2.513005e+003,1.210850e+002
2.514933e+003,1.207992e+002
2.516862e+003,1.143246e+002
2.518790e+003,1.061477e+002
2.520719e+003,1.055381e+002
2.522647e+003,1.096400e+002
2.524575e+003,1.110083e+002
2.526504e+003,1.103531e+002
2.528432e+003,1.109232e+002
2.530361e+003,1.122150e+002
2.532289e+003,1.107215e+002
2.534218e+003,1.070588e+002
2.536146e+003,1.050528e+002
2.538075e+003,1.048968e+002
2.540003e+003,1.094094e+002
2.541932e+003,1.203253e+002
2.543860e+003,1.194694e+002
2.545789e+003,1.043297e+002
2.547717e+003,9.365655e+001
2.549646e+003,8.785361e+001
2.551574e+003,8.901433e+001
2.553502e+003,9.883143e+001
2.555431e+003,1.048232e+002
2.557359e+003,1.044168e+002
2.559288e+003,1.025661e+002
2.561216e+003,9.566962e+001
2.563145e+003,9.602615e+001
2.565073e+003,1.090169e+002
2.567002e+003,1.156054e+002
2.568930e+003,1.102705e+002
2.570859e+003,1.058872e+002
2.572787e+003,1.067740e+002
2.574716e+003,1.067854e+002
2.576644e+003,1.015075e+002
2.578573e+003,9.950549e+001
2.580501e+003,1.054864e+002
2.582429e+003,1.111217e+002
2.584358e+003,1.155644e+002
2.586287e+003,1.167322e+002
2.588215e+003,1.118057e+002
2.590144e+003,1.070495e+002
2.592072e+003,1.056221e+002
2.594000e+003,1.047728e+002
2.595929e+003,1.018870e+002
2.597857e+003,1.009757e+002
2.599786e+003,1.057227e+002
2.601714e+003,1.110232e+002
2.603643e+003,1.152238e+002
2.605571e+003,1.174727e+002
2.607500e+003,1.158965e+002
2.609428e+003,1.137595e+002
2.611357e+003,1.151730e+002
2.613285e+003,1.150574e+002
2.615214e+003,1.038411e+002
2.617142e+003,9.533857e+001
2.619071e+003,1.070994e+002
2.620999e+003,1.210191e+002
2.622927e+003,1.196242e+002
2.624856e+003,1.145087e+002
2.626784e+003,1.178636e+002
2.628713e+003,1.234271e+002
2.630641e+003,1.253941e+002
2.632570e+003,1.243031e+002
2.634498e+003,1.179687e+002
2.636427e+003,1.115704e+002
2.638355e+003,1.127989e+002
2.640284e+003,1.165284e+002
2.642212e+003,1.153333e+002
2.644141e+003,1.129358e+002
2.646069e+003,1.151680e+002
2.647998e+003,1.197519e+002
2.649926e+003,1.243417e+002
2.651854e+003,1.276939e+002
2.653783e+003,1.268402e+002
2.655711e+003,1.239957e+002
2.657640e+003,1.207423e+002
2.659568e+003,1.193721e+002
2.661497e+003,1.263160e+002
2.663425e+003,1.369402e+002
2.665354e+003,1.427618e+002
2.667282e+003,1.445424e+002
2.669211e+003,1.429788e+002
2.671139e+003,1.389781e+002
2.673068e+003,1.329393e+002
2.674996e+003,1.267390e+002
2.676925e+003,1.235822e+002
2.678853e+003,1.239671e+002
2.680781e+003,1.331548e+002
2.682710e+003,1.448088e+002
2.684638e+003,1.387202e+002
2.686567e+003,1.258683e+002
2.688495e+003,1.334978e+002
2.690424e+003,1.509539e+002
2.692352e+003,1.511687e+002
2.694281e+003,1.415203e+002
2.696209e+003,1.393582e+002
2.698138e+003,1.433138e+002
2.700066e+003,1.539818e+002
2.701995e+003,1.658278e+002
2.703923e+003,1.629943e+002
2.705852e+003,1.536790e+002
2.707780e+003,1.615255e+002
2.709708e+003,1.769673e+002
2.711637e+003,1.739358e+002
2.713565e+003,1.605406e+002
2.715494e+003,1.556878e+002
2.717422e+003,1.555129e+002
2.719351e+003,1.520959e+002
2.721279e+003,1.474109e+002
2.723208e+003,1.464877e+002
2.725136e+003,1.470130e+002
2.727065e+003,1.412782e+002
2.728993e+003,1.348401e+002
2.730922e+003,1.423933e+002
2.732850e+003,1.546805e+002
2.734779e+003,1.557006e+002
2.736707e+003,1.498918e+002
2.738635e+003,1.427779e+002
2.740564e+003,1.368234e+002
2.742492e+003,1.348448e+002
2.744421e+003,1.383713e+002
2.746349e+003,1.555632e+002
2.748278e+003,1.741566e+002
2.750206e+003,1.738850e+002
2.752135e+003,1.655860e+002
2.754063e+003,1.639370e+002
2.755992e+003,1.648948e+002
2.757920e+003,1.617685e+002
2.759849e+003,1.595222e+002
2.761777e+003,1.676194e+002
2.763706e+003,1.756202e+002
2.765634e+003,1.699687e+002
2.767563e+003,1.598109e+002
2.769491e+003,1.511937e+002
2.771419e+003,1.472982e+002
2.773348e+003,1.551858e+002
2.775276e+003,1.638130e+002
2.777205e+003,1.611156e+002
2.779133e+003,1.577205e+002
2.781062e+003,1.639832e+002
2.782990e+003,1.716892e+002
2.784919e+003,1.756732e+002
2.786847e+003,1.771037e+002
2.788776e+003,1.779179e+002
2.790704e+003,1.747243e+002
2.792633e+003,1.588797e+002
2.794561e+003,1.478522e+002
2.796490e+003,1.547753e+002
2.798418e+003,1.647002e+002
2.800346e+003,1.721609e+002
2.802275e+003,1.792601e+002
2.804203e+003,1.886058e+002
2.806132e+003,1.952135e+002
2.808060e+003,1.927579e+002
2.809989e+003,1.941331e+002
2.811917e+003,2.056309e+002
2.813846e+003,2.156067e+002
2.815774e+003,2.219146e+002
2.817703e+003,2.229115e+002
2.819631e+003,2.151983e+002
2.821560e+003,2.072339e+002
2.823488e+003,1.977815e+002
2.825417e+003,1.949647e+002
2.827345e+003,2.008973e+002
2.829273e+003,2.098778e+002
2.831202e+003,2.226231e+002
2.833130e+003,2.325942e+002
2.835059e+003,2.405013e+002
2.836987e+003,2.397544e+002
2.838916e+003,2.277147e+002
2.840844e+003,2.254066e+002
2.842773e+003,2.356262e+002
2.844701e+003,2.423750e+002
2.846630e+003,2.440824e+002
2.848558e+003,2.439387e+002
2.850487e+003,2.418738e+002
2.852415e+003,2.411389e+002
2.854344e+003,2.417805e+002
2.856272e+003,2.435540e+002
2.858200e+003,2.464162e+002
2.860129e+003,2.501115e+002
2.862057e+003,2.546590e+002
2.863986e+003,2.602256e+002
2.865914e+003,2.667180e+002
2.867843e+003,2.742505e+002
2.869771e+003,2.821505e+002
2.871700e+003,2.886295e+002
2.873628e+003,2.945913e+002
2.875557e+003,3.045591e+002
2.877485e+003,3.129685e+002
2.879414e+003,3.092929e+002
2.881342e+003,3.011673e+002
2.883271e+003,2.956984e+002
2.885199e+003,2.917363e+002
2.887127e+003,2.877757e+002
2.889056e+003,2.852690e+002
2.890984e+003,2.867553e+002
2.892913e+003,2.880325e+002
2.894841e+003,2.840273e+002
2.896770e+003,2.825317e+002
2.898698e+003,2.892302e+002
2.900627e+003,2.970561e+002
2.902555e+003,3.034239e+002
2.904484e+003,3.092571e+002
2.906412e+003,3.054908e+002
2.908341e+003,3.241482e+002
2.910269e+003,3.842147e+002
2.912198e+003,4.480709e+002
2.914126e+003,5.011176e+002
2.916054e+003,5.900775e+002
2.917983e+003,7.166129e+002
2.919911e+003,9.090466e+002
2.921840e+003,1.191284e+003
2.923768e+003,1.479863e+003
2.925697e+003,1.793096e+003
2.927625e+003,1.896832e+003
2.929554e+003,1.800040e+003
2.931482e+003,1.622176e+003
2.933411e+003,1.390108e+003
2.935339e+003,1.244268e+003
2.937268e+003,1.181896e+003
2.939196e+003,1.208977e+003
2.941125e+003,1.303824e+003
2.943053e+003,1.445916e+003
2.944981e+003,1.591148e+003
2.946910e+003,1.662372e+003
2.948838e+003,1.698053e+003
2.950767e+003,1.762956e+003
2.952695e+003,1.799582e+003
2.954624e+003,1.777783e+003
2.956552e+003,1.684460e+003
2.958481e+003,1.471748e+003
2.960409e+003,1.240005e+003
2.962338e+003,1.029469e+003
2.964266e+003,8.351428e+002
2.966195e+003,6.441899e+002
2.968123e+003,4.952986e+002
2.970052e+003,4.047484e+002
2.971980e+003,3.554729e+002
2.973908e+003,3.517953e+002
2.975837e+003,3.570243e+002
2.977765e+003,3.630805e+002
2.979694e+003,4.160321e+002
2.981622e+003,5.410563e+002
2.983551e+003,6.046212e+002
2.985479e+003,6.062469e+002
2.987408e+003,5.530054e+002
2.989336e+003,4.570903e+002
2.991265e+003,3.775034e+002
2.993193e+003,3.143357e+002
2.995122e+003,2.643925e+002
2.997050e+003,2.291480e+002
2.998979e+003,2.179374e+002
3.000907e+003,2.177276e+002
3.002835e+003,2.155578e+002
3.004764e+003,2.112159e+002
3.006692e+003,2.004953e+002
3.008621e+003,1.930362e+002
3.010549e+003,1.979949e+002
3.012478e+003,2.024903e+002
3.014406e+003,2.020750e+002
3.016335e+003,1.963150e+002
3.018263e+003,1.799656e+002
3.020192e+003,1.680636e+002
3.022120e+003,1.629605e+002
3.024049e+003,1.618822e+002
3.025977e+003,1.658321e+002
3.027906e+003,1.679949e+002
3.029834e+003,1.682724e+002
3.031762e+003,1.623026e+002
3.033691e+003,1.518389e+002
3.035619e+003,1.569762e+002
3.037548e+003,1.732323e+002
3.039476e+003,1.796357e+002
3.041405e+003,1.794331e+002
3.043333e+003,1.796303e+002
3.045262e+003,1.796284e+002
3.047190e+003,1.777291e+002
3.049119e+003,1.761676e+002
3.051047e+003,1.796582e+002
3.052976e+003,1.805888e+002
3.054904e+003,1.708410e+002
3.056833e+003,1.637909e+002
3.058761e+003,1.713904e+002
3.060689e+003,1.725227e+002
3.062618e+003,1.563591e+002
3.064546e+003,1.465159e+002
3.066475e+003,1.457376e+002
3.068403e+003,1.525450e+002
3.070332e+003,1.697421e+002
3.072260e+003,1.773733e+002
3.074189e+003,1.753434e+002
3.076117e+003,1.732663e+002
3.078046e+003,1.708854e+002
3.079974e+003,1.644781e+002
3.081903e+003,1.587683e+002
3.083831e+003,1.695272e+002
3.085760e+003,1.829285e+002
3.087688e+003,1.777373e+002
3.089616e+003,1.696323e+002
3.091545e+003,1.727318e+002
3.093473e+003,1.754188e+002
3.095402e+003,1.690573e+002
3.097330e+003,1.640371e+002
3.099259e+003,1.633208e+002
3.101187e+003,1.640815e+002
3.103116e+003,1.653450e+002
3.105044e+003,1.697417e+002
3.106973e+003,1.783110e+002
3.108901e+003,1.756478e+002
3.110830e+003,1.622130e+002
3.112758e+003,1.631371e+002
3.114687e+003,1.749608e+002
3.116615e+003,1.795852e+002
3.118543e+003,1.806180e+002
3.120472e+003,1.865887e+002
3.122400e+003,1.922972e+002
3.124329e+003,1.908082e+002
3.126257e+003,1.873011e+002
3.128186e+003,1.827503e+002
3.130114e+003,1.829066e+002
3.132043e+003,1.972723e+002
3.133971e+003,2.041819e+002
3.135900e+003,1.919923e+002
3.137828e+003,1.892758e+002
3.139757e+003,1.999396e+002
3.141685e+003,2.061775e+002
3.143614e+003,2.058016e+002
3.145542e+003,2.076572e+002
3.147470e+003,2.127122e+002
3.149399e+003,2.308673e+002
3.151327e+003,2.549858e+002
3.153256e+003,2.720893e+002
3.155184e+003,2.844309e+002
3.157113e+003,2.924060e+002
3.159041e+003,3.000360e+002
3.160970e+003,3.090363e+002
3.162898e+003,3.198373e+002
3.164827e+003,3.338769e+002
3.166755e+003,3.475552e+002
3.168684e+003,3.614711e+002
3.170612e+003,3.694763e+002
3.172541e+003,3.699170e+002
3.174469e+003,3.733492e+002
3.176397e+003,3.799180e+002
3.178326e+003,3.715096e+002
3.180254e+003,3.563419e+002
3.182183e+003,3.594557e+002
3.184111e+003,3.718334e+002
3.186040e+003,3.805187e+002
3.187968e+003,3.893154e+002
3.189897e+003,4.063725e+002
3.191825e+003,4.164665e+002
3.193754e+003,4.059050e+002
3.195682e+003,3.969650e+002
3.197611e+003,3.925187e+002
3.199539e+003,3.993657e+002
3.201468e+003,4.212455e+002
3.203396e+003,4.337326e+002
3.205324e+003,4.358922e+002
3.207253e+003,4.314658e+002
3.209181e+003,4.211591e+002
3.211110e+003,4.028209e+002
3.213038e+003,3.852928e+002
3.214967e+003,3.884022e+002
3.216895e+003,3.906308e+002
3.218824e+003,3.734614e+002
3.220752e+003,3.531634e+002
3.222681e+003,3.347542e+002
3.224609e+003,3.207087e+002
3.226538e+003,3.121478e+002
3.228466e+003,3.023152e+002
3.230395e+003,2.896477e+002
3.232323e+003,2.891665e+002
3.234251e+003,2.984133e+002
3.236180e+003,2.872466e+002
3.238108e+003,2.672266e+002
3.240037e+003,2.619735e+002
3.241965e+003,2.631638e+002
3.243894e+003,2.627289e+002
3.245822e+003,2.625600e+002
3.247751e+003,2.658573e+002
3.249679e+003,2.651673e+002
3.251608e+003,2.511491e+002
3.253536e+003,2.483671e+002
3.255465e+003,2.599181e+002
3.257393e+003,2.649847e+002
3.259322e+003,2.623737e+002
3.261250e+003,2.598179e+002
3.263178e+003,2.583556e+002
3.265107e+003,2.620074e+002
3.267035e+003,2.680242e+002
3.268964e+003,2.739315e+002
3.270892e+003,2.796953e+002
3.272821e+003,2.900631e+002
3.274749e+003,2.899932e+002
3.276678e+003,2.684118e+002
3.278606e+003,2.539369e+002
3.280535e+003,2.509689e+002
3.282463e+003,2.552875e+002
3.284392e+003,2.645547e+002
3.286320e+003,2.577513e+002
3.288249e+003,2.437894e+002
3.290177e+003,2.505222e+002
3.292105e+003,2.604585e+002
3.294034e+003,2.507821e+002
3.295962e+003,2.422236e+002
3.297891e+003,2.536721e+002
3.299819e+003,2.572213e+002
3.301748e+003,2.450727e+002
3.303676e+003,2.313764e+002
3.305605e+003,2.160430e+002
3.307533e+003,2.189819e+002
3.309462e+003,2.363314e+002
3.311390e+003,2.467076e+002
3.313319e+003,2.506408e+002
3.315247e+003,2.459744e+002
3.317176e+003,2.398717e+002
3.319104e+003,2.396788e+002
3.321032e+003,2.381226e+002
3.322961e+003,2.300609e+002
3.324889e+003,2.247152e+002
3.326818e+003,2.247769e+002
3.328746e+003,2.138865e+002
3.330675e+003,1.924824e+002
3.332603e+003,1.894219e+002
3.334532e+003,1.965938e+002
3.336460e+003,1.877098e+002
3.338389e+003,1.766804e+002
3.340317e+003,1.823398e+002
3.342246e+003,1.852735e+002
3.344174e+003,1.717552e+002
3.346103e+003,1.608975e+002
3.348031e+003,1.574120e+002
3.349959e+003,1.544501e+002
3.351888e+003,1.511561e+002
3.353816e+003,1.533075e+002
3.355745e+003,1.581682e+002
3.357673e+003,1.563256e+002
3.359602e+003,1.531190e+002
3.361530e+003,1.566701e+002
3.363459e+003,1.605751e+002
3.365387e+003,1.616041e+002
3.367316e+003,1.609401e+002
3.369244e+003,1.569641e+002
3.371173e+003,1.591865e+002
3.373101e+003,1.679901e+002
3.375030e+003,1.733365e+002
3.376958e+003,1.778289e+002
3.378886e+003,1.941998e+002
3.380815e+003,2.135247e+002
3.382743e+003,2.220347e+002
3.384672e+003,2.342907e+002
3.386600e+003,2.612989e+002
3.388529e+003,2.898547e+002
3.390457e+003,3.175082e+002
3.392386e+003,3.481609e+002
3.394314e+003,3.822307e+002
3.396243e+003,3.973727e+002
3.398171e+003,3.996767e+002
3.400100e+003,4.092271e+002
3.402028e+003,4.115810e+002
3.403957e+003,3.809684e+002
3.405885e+003,3.542641e+002
3.407813e+003,3.560651e+002
3.409742e+003,3.401049e+002
3.411670e+003,2.944569e+002
3.413599e+003,2.604579e+002
3.415527e+003,2.381534e+002
3.417456e+003,2.144308e+002
3.419384e+003,1.931188e+002
3.421313e+003,1.865955e+002
3.423241e+003,1.798556e+002
3.425170e+003,1.585706e+002
3.427098e+003,1.401490e+002
3.429027e+003,1.291693e+002
3.430955e+003,1.243713e+002
3.432884e+003,1.258050e+002
3.434812e+003,1.193216e+002
3.436740e+003,1.082352e+002
3.438669e+003,1.065369e+002
3.440597e+003,1.070004e+002
3.442526e+003,9.969396e+001
3.444454e+003,9.596854e+001
3.446383e+003,1.049446e+002
3.448311e+003,1.030135e+002
3.450240e+003,7.890630e+001
3.452168e+003,7.766509e+001
3.454097e+003,9.449773e+001
3.456025e+003,9.307202e+001
3.457954e+003,8.415767e+001
3.459882e+003,8.413387e+001
3.461811e+003,8.383070e+001
3.463739e+003,7.538464e+001
3.465667e+003,7.238546e+001
3.467596e+003,8.509455e+001
3.469524e+003,8.426581e+001
3.471453e+003,7.203157e+001
3.473381e+003,7.224211e+001
3.475310e+003,7.853316e+001
3.477238e+003,8.053485e+001
3.479167e+003,7.667954e+001
3.481095e+003,5.592255e+001
3.483024e+003,5.021891e+001
3.484952e+003,7.560012e+001
3.486881e+003,9.027686e+001
3.488809e+003,9.130910e+001
3.490738e+003,8.445048e+001
3.492666e+003,7.478962e+001
3.494594e+003,7.616890e+001
3.496523e+003,7.837309e+001
3.498451e+003,7.239265e+001
3.500380e+003,6.558548e+001
3.502308e+003,5.825050e+001
3.504237e+003,6.164648e+001
3.506165e+003,7.719703e+001
3.508094e+003,7.619721e+001
3.510022e+003,6.717045e+001
3.511951e+003,7.345698e+001
3.513879e+003,7.998681e+001
3.515808e+003,7.364052e+001
3.517736e+003,6.258874e+001
3.519665e+003,4.561109e+001
3.521593e+003,4.499740e+001
3.523521e+003,6.225317e+001
3.525450e+003,6.730547e+001
3.527378e+003,6.587210e+001
3.529307e+003,7.026138e+001
3.531235e+003,7.327062e+001
3.533164e+003,6.815234e+001
3.535092e+003,6.303587e+001
3.537021e+003,5.837151e+001
3.538949e+003,6.444460e+001
3.540878e+003,7.874068e+001
3.542806e+003,7.284271e+001
3.544735e+003,5.940633e+001
3.546663e+003,5.824759e+001
3.548592e+003,6.053450e+001
3.550520e+003,6.211642e+001
3.552448e+003,6.281360e+001
3.554377e+003,6.228178e+001
3.556305e+003,6.369754e+001
3.558234e+003,6.542566e+001
3.560162e+003,5.727002e+001
3.562091e+003,4.922821e+001
3.564019e+003,5.671297e+001
3.565948e+003,6.470374e+001
3.567876e+003,6.676711e+001
3.569805e+003,6.584634e+001
3.571733e+003,6.235741e+001
3.573662e+003,6.609588e+001
3.575590e+003,7.301749e+001
3.577519e+003,7.131723e+001
3.579447e+003,6.734180e+001
3.581376e+003,6.572836e+001
3.583304e+003,6.462914e+001
3.585233e+003,6.304015e+001
3.587161e+003,6.579563e+001
3.589090e+003,7.171326e+001
3.591018e+003,6.682948e+001
3.592947e+003,5.906864e+001
3.594875e+003,6.433072e+001
3.596803e+003,6.592747e+001
3.598732e+003,4.463268e+001
3.600660e+003,4.399159e+001
3.602589e+003,6.844035e+001
3.604517e+003,8.180306e+001
3.606446e+003,8.032911e+001
3.608374e+003,3.746617e+001
3.610303e+003,2.576254e+000
3.612231e+003,2.843550e+001
3.614160e+003,5.077312e+001
3.616088e+003,5.410756e+001
3.618017e+003,5.770704e+001
3.619945e+003,6.301216e+001
3.621874e+003,6.858967e+001
3.623802e+003,7.290106e+001
3.625730e+003,7.582825e+001
3.627659e+003,7.336198e+001
3.629587e+003,6.064869e+001
3.631516e+003,5.527386e+001
3.633444e+003,5.950736e+001
3.635373e+003,5.792046e+001
3.637301e+003,5.493305e+001
3.639230e+003,6.060019e+001
3.641158e+003,6.743887e+001
3.643087e+003,7.365698e+001
3.645015e+003,7.135397e+001
3.646944e+003,5.862369e+001
3.648872e+003,5.518517e+001
3.650801e+003,5.869269e+001
3.652729e+003,6.162996e+001
3.654657e+003,6.241141e+001
3.656586e+003,5.768084e+001
3.658514e+003,5.386472e+001
3.660443e+003,5.204354e+001
3.662371e+003,5.503192e+001
3.664300e+003,6.183945e+001
3.666228e+003,7.221934e+001
3.668157e+003,7.735767e+001
3.670085e+003,6.208981e+001
3.672014e+003,5.070769e+001
3.673942e+003,4.972253e+001
3.675871e+003,5.561781e+001
3.677799e+003,6.632477e+001
3.679728e+003,7.163761e+001
3.681656e+003,7.237029e+001
3.683584e+003,6.766364e+001
3.685513e+003,6.271540e+001
3.687441e+003,5.792893e+001
3.689370e+003,6.386188e+001
3.691298e+003,7.935027e+001
3.693227e+003,7.395697e+001
3.695155e+003,6.250907e+001
3.697084e+003,6.610854e+001
3.699012e+003,6.931170e+001
3.700941e+003,6.489806e+001
3.702869e+003,6.450861e+001
3.704798e+003,6.886832e+001
3.706726e+003,6.875764e+001
3.708655e+003,6.542026e+001
3.710583e+003,5.826204e+001
3.712511e+003,5.415626e+001
3.714440e+003,5.703999e+001
3.716368e+003,5.924089e+001
3.718297e+003,5.970626e+001
3.720225e+003,5.276138e+001
3.722154e+003,4.790619e+001
3.724082e+003,6.554055e+001
3.726011e+003,7.484551e+001
3.727939e+003,5.827928e+001
3.729868e+003,5.364037e+001
3.731796e+003,6.261064e+001
3.733725e+003,6.102820e+001
3.735653e+003,5.645089e+001
3.737582e+003,5.956800e+001
3.739510e+003,6.217503e+001
3.741438e+003,6.103897e+001
3.743367e+003,5.918767e+001
3.745295e+003,5.719817e+001
3.747224e+003,5.785961e+001
3.749152e+003,5.865237e+001
3.751081e+003,5.719645e+001
3.753009e+003,5.333425e+001
3.754938e+003,4.494289e+001
3.756866e+003,5.004646e+001
3.758795e+003,6.438595e+001
3.760723e+003,6.222519e+001
3.762652e+003,5.674230e+001
3.764580e+003,6.020578e+001
3.766509e+003,6.393368e+001
3.768437e+003,6.604749e+001
3.770365e+003,6.663941e+001
3.772294e+003,6.619578e+001
3.774222e+003,6.654721e+001
3.776151e+003,6.595963e+001
3.778079e+003,6.270900e+001
3.780008e+003,5.987687e+001
3.781936e+003,5.799756e+001
3.783865e+003,5.275204e+001
3.785793e+003,4.736039e+001
3.787722e+003,4.987141e+001
3.789650e+003,5.275339e+001
3.791579e+003,5.211245e+001
3.793507e+003,5.020585e+001
3.795436e+003,4.787027e+001
3.797364e+003,5.512408e+001
3.799292e+003,6.417535e+001
3.801221e+003,6.291695e+001
3.803149e+003,6.291020e+001
3.805078e+003,6.979462e+001
3.807006e+003,6.927027e+001
3.808935e+003,6.277237e+001
3.810863e+003,5.752983e+001
3.812792e+003,5.381003e+001
3.814720e+003,5.175791e+001
3.816649e+003,5.164832e+001
3.818577e+003,5.370325e+001
3.820506e+003,6.072102e+001
3.822434e+003,6.706532e+001
3.824363e+003,5.727078e+001
3.826291e+003,5.018283e+001
3.828219e+003,5.699026e+001
3.830148e+003,6.020174e+001
3.832076e+003,5.789353e+001
3.834005e+003,5.061839e+001
3.835933e+003,4.518790e+001
3.837862e+003,5.063113e+001
3.839790e+003,5.754068e+001
3.841719e+003,6.353008e+001
3.843647e+003,7.193553e+001
3.845576e+003,7.875397e+001
3.847504e+003,6.595157e+001
3.849433e+003,5.280894e+001
3.851361e+003,5.084209e+001
3.853290e+003,5.798764e+001
3.855218e+003,7.139247e+001
3.857146e+003,6.304247e+001
3.859075e+003,4.510983e+001
3.861003e+003,2.909068e+001
3.862932e+003,2.399256e+001
3.864860e+003,3.673954e+001
3.866789e+003,4.297818e+001
3.868717e+003,4.523061e+001
3.870646e+003,5.527386e+001
3.872574e+003,6.332438e+001
3.874503e+003,6.411874e+001
3.876431e+003,5.784389e+001
3.878360e+003,4.580843e+001
3.880288e+003,4.819273e+001
3.882217e+003,5.335308e+001
3.884145e+003,4.214118e+001
3.886073e+003,3.883964e+001
3.888002e+003,5.250335e+001
3.889930e+003,5.680348e+001
3.891859e+003,5.513570e+001
3.893787e+003,5.762565e+001
3.895716e+003,6.081000e+001
3.897644e+003,6.330209e+001
3.899573e+003,6.461248e+001
3.901501e+003,6.387605e+001
3.903430e+003,4.869678e+001
3.905358e+003,3.691064e+001
3.907287e+003,5.177240e+001
3.909215e+003,6.048885e+001
3.911144e+003,5.774969e+001
3.913072e+003,6.420186e+001
3.915000e+003,7.033675e+001
3.916929e+003,5.187479e+001
3.918857e+003,3.972353e+001
3.920786e+003,4.959821e+001
3.922714e+003,5.437415e+001
3.924643e+003,5.486186e+001
3.926571e+003,5.689741e+001
3.928500e+003,5.856765e+001
3.930428e+003,5.907825e+001
3.932357e+003,5.614988e+001
3.934285e+003,5.126865e+001
3.936214e+003,6.470135e+001
3.938142e+003,7.540247e+001
3.940071e+003,5.488635e+001
3.941999e+003,4.272787e+001
3.943927e+003,4.812787e+001
3.945856e+003,4.925563e+001
3.947784e+003,4.890813e+001
3.949713e+003,5.052309e+001
3.951641e+003,5.490567e+001
3.953570e+003,6.279066e+001
3.955498e+003,6.255518e+001
3.957427e+003,5.577012e+001
3.959355e+003,4.065695e+001
3.961284e+003,3.446179e+001
3.963212e+003,5.419033e+001
3.965141e+003,5.372370e+001
3.967069e+003,3.814971e+001
3.968998e+003,3.777884e+001
3.970926e+003,4.604661e+001
3.972854e+003,6.359108e+001
3.974783e+003,6.922254e+001
3.976711e+003,6.273257e+001
3.978640e+003,5.390961e+001
3.980568e+003,4.737732e+001
3.982497e+003,5.009454e+001
3.984425e+003,4.608070e+001
3.986354e+003,3.193432e+001
3.988282e+003,3.616201e+001
3.990211e+003,4.789683e+001
3.992139e+003,5.402958e+001
3.994068e+003,6.234784e+001
3.995996e+003,7.449413e+001
3.997925e+003,7.108519e+001
3.999853e+003,6.082103e+001
4.001781e+003,5.817299e+001
4.003710e+003,5.651851e+001
4.005638e+003,5.373040e+001
4.007567e+003,5.293530e+001
4.009495e+003,5.412472e+001
4.011424e+003,6.002166e+001
4.013352e+003,6.212101e+001
4.015281e+003,5.408970e+001
4.017209e+003,4.944971e+001
4.019138e+003,4.649860e+001
4.021066e+003,3.750247e+001
4.022995e+003,3.462650e+001
4.024923e+003,4.396873e+001
4.026852e+003,5.440673e+001
4.028780e+003,6.202127e+001
4.030708e+003,5.175475e+001
4.032637e+003,4.450106e+001
4.034565e+003,5.341814e+001
4.036494e+003,5.956406e+001
4.038422e+003,6.009128e+001
4.040351e+003,4.209752e+001
4.042279e+003,3.178674e+001
4.044208e+003,5.646103e+001
4.046136e+003,6.110603e+001
4.048065e+003,4.997532e+001
4.049993e+003,5.470392e+001
4.051922e+003,6.128701e+001
4.053850e+003,6.096284e+001
4.055779e+003,6.099002e+001
4.057707e+003,6.146635e+001
4.059635e+003,5.757477e+001
4.061564e+003,5.378550e+001
4.063492e+003,5.308004e+001
4.065421e+003,5.343014e+001
4.067349e+003,5.377758e+001
4.069278e+003,4.787685e+001
4.071206e+003,4.285516e+001
4.073135e+003,4.382415e+001
4.075063e+003,4.915893e+001
4.076992e+003,5.634623e+001
4.078920e+003,5.319742e+001
4.080849e+003,4.903348e+001
4.082777e+003,5.067303e+001
4.084706e+003,4.916941e+001
4.086634e+003,4.559465e+001
4.088563e+003,4.898564e+001
4.090491e+003,4.997626e+001
4.092419e+003,4.186212e+001
4.094348e+003,3.937784e+001
4.096276e+003,4.330243e+001
4.098205e+003,5.929044e+001
4.100133e+003,6.555918e+001
4.102062e+003,4.435755e+001
4.103990e+003,3.692217e+001
4.105919e+003,4.237300e+001
4.107847e+003,5.491658e+001
4.109776e+003,6.116204e+001
4.111704e+003,4.911375e+001
4.113633e+003,4.153707e+001
4.115561e+003,4.063073e+001
4.117490e+003,5.602811e+001
4.119418e+003,6.409265e+001
4.121347e+003,5.473472e+001
4.123275e+003,4.686758e+001
4.125204e+003,4.462089e+001
4.127132e+003,5.898166e+001
4.129061e+003,6.699333e+001
4.130989e+003,6.235669e+001
4.132917e+003,5.347750e+001
4.134846e+003,4.515902e+001
4.136774e+003,4.337578e+001
4.138703e+003,4.636734e+001
4.140631e+003,5.380493e+001
4.142560e+003,5.528689e+001
4.144488e+003,5.491601e+001
4.146417e+003,5.937534e+001
4.148345e+003,5.829287e+001
4.150273e+003,4.997871e+001
4.152202e+003,3.179243e+001
4.154130e+003,2.287962e+001
4.156059e+003,5.409697e+001
4.157987e+003,6.209195e+001
4.159916e+003,4.632240e+001
4.161844e+003,4.111644e+001
4.163773e+003,4.342050e+001
4.165701e+003,5.580530e+001
4.167630e+003,5.840054e+001
4.169558e+003,5.264622e+001
4.171487e+003,4.153033e+001
4.173415e+003,3.965438e+001
4.175344e+003,5.477946e+001
4.177272e+003,4.922823e+001
4.179201e+003,3.533692e+001
4.181129e+003,4.271719e+001
4.183058e+003,4.734977e+001
4.184986e+003,4.338421e+001
4.186915e+003,4.355217e+001
4.188843e+003,4.823862e+001
4.190771e+003,6.215840e+001
4.192700e+003,6.113459e+001
4.194628e+003,4.407750e+001
4.196557e+003,4.868214e+001
4.198485e+003,5.814516e+001
4.200414e+003,6.042680e+001
4.202342e+003,6.309091e+001
4.204271e+003,6.456128e+001
4.206199e+003,4.759848e+001
4.208127e+003,3.767767e+001
4.210056e+003,4.979471e+001
4.211984e+003,5.708149e+001
4.213913e+003,5.961483e+001
4.215841e+003,5.864067e+001
4.217770e+003,5.706853e+001
4.219698e+003,5.561808e+001
4.221627e+003,5.580685e+001
4.223555e+003,5.456616e+001
4.225484e+003,4.539078e+001
4.227412e+003,4.218306e+001
4.229341e+003,4.549368e+001
4.231269e+003,4.697470e+001
4.233198e+003,4.608290e+001
4.235126e+003,3.753778e+001
4.237055e+003,4.663761e+001
4.238983e+003,6.329276e+001
4.240912e+003,5.883731e+001
4.242840e+003,5.445987e+001
4.244769e+003,5.783662e+001
4.246697e+003,5.798977e+001
4.248625e+003,5.511701e+001
4.250554e+003,5.003561e+001
