1.159199e+002,3.177796e+001
1.178484e+002,3.315366e+001
1.197769e+002,3.401208e+001
1.217053e+002,3.432356e+001
1.236338e+002,3.373459e+001
1.255623e+002,3.112308e+001
1.274907e+002,2.824535e+001
1.294192e+002,2.656149e+001
1.313477e+002,2.698006e+001
1.332761e+002,2.763651e+001
1.352046e+002,2.805745e+001
1.371331e+002,2.819107e+001
1.390615e+002,2.823247e+001
1.409900e+002,2.809458e+001
1.429185e+002,2.782912e+001
1.448469e+002,2.754241e+001
1.467754e+002,2.654802e+001
1.487039e+002,2.601960e+001
1.506323e+002,2.717148e+001
1.525608e+002,3.048192e+001
1.544893e+002,3.183422e+001
1.564177e+002,2.979402e+001
1.583462e+002,2.516936e+001
1.602747e+002,2.163750e+001
1.622031e+002,1.942434e+001
1.641316e+002,1.786089e+001
1.660601e+002,1.640345e+001
1.679885e+002,1.463038e+001
1.699170e+002,1.381116e+001
1.718455e+002,1.484726e+001
1.737739e+002,1.766265e+001
1.757024e+002,1.862713e+001
1.776309e+002,1.610244e+001
1.795593e+002,1.268958e+001
1.814878e+002,1.058773e+001
1.834163e+002,1.132595e+001
1.853447e+002,1.179646e+001
1.872732e+002,1.097384e+001
1.892017e+002,9.012294e+000
1.911301e+002,8.217560e+000
1.930586e+002,9.641659e+000
1.949871e+002,1.215197e+001
1.969155e+002,1.446076e+001
1.988440e+002,1.778244e+001
2.007725e+002,1.987994e+001
2.027009e+002,1.918888e+001
2.046294e+002,1.540839e+001
2.065579e+002,1.329377e+001
2.084864e+002,1.549856e+001
2.104148e+002,1.963859e+001
2.123433e+002,2.009687e+001
2.142718e+002,1.289343e+001
2.162002e+002,6.903818e+000
2.181287e+002,6.303407e+000
2.200572e+002,1.403675e+001
2.219856e+002,1.958521e+001
2.239141e+002,2.103747e+001
2.258426e+002,1.962086e+001
2.277710e+002,1.897585e+001
2.296995e+002,2.024940e+001
2.316280e+002,2.106297e+001
2.335564e+002,2.029182e+001
2.354849e+002,1.529893e+001
2.374134e+002,1.232075e+001
2.393418e+002,1.213878e+001
2.412703e+002,1.407571e+001
2.431988e+002,1.650721e+001
2.451272e+002,2.087114e+001
2.470557e+002,2.446977e+001
2.489842e+002,2.569755e+001
2.509126e+002,2.334389e+001
2.528411e+002,2.109802e+001
2.547696e+002,1.876139e+001
2.566980e+002,1.675767e+001
2.586265e+002,1.651991e+001
2.605550e+002,2.094826e+001
2.624834e+002,2.514808e+001
2.644119e+002,2.581230e+001
2.663404e+002,2.184709e+001
2.682688e+002,1.923013e+001
2.701973e+002,2.010765e+001
2.721258e+002,2.365408e+001
2.740542e+002,2.675062e+001
2.759827e+002,3.028717e+001
2.779112e+002,3.274929e+001
2.798396e+002,3.263942e+001
2.817681e+002,2.951901e+001
2.836966e+002,2.696885e+001
2.856250e+002,2.645255e+001
2.875535e+002,2.735725e+001
2.894820e+002,2.704537e+001
2.914104e+002,2.346883e+001
2.933389e+002,2.062450e+001
2.952674e+002,2.130360e+001
2.971958e+002,2.687935e+001
2.991243e+002,2.953791e+001
3.010528e+002,2.554352e+001
3.029813e+002,1.754157e+001
3.049097e+002,1.395769e+001
3.068382e+002,1.812450e+001
3.087667e+002,2.288577e+001
3.106951e+002,2.493159e+001
3.126236e+002,2.331222e+001
3.145521e+002,2.190296e+001
3.164805e+002,2.129320e+001
3.184090e+002,2.113956e+001
3.203375e+002,2.070011e+001
3.222659e+002,1.983375e+001
3.241944e+002,1.890686e+001
3.261229e+002,1.794684e+001
3.280513e+002,1.665509e+001
3.299798e+002,1.621865e+001
3.319083e+002,1.755489e+001
3.338367e+002,1.940476e+001
3.357652e+002,2.005743e+001
3.376937e+002,1.884529e+001
3.396221e+002,1.749013e+001
3.415506e+002,1.648867e+001
3.434791e+002,1.588587e+001
3.454075e+002,1.561141e+001
3.473360e+002,1.522285e+001
3.492645e+002,1.544587e+001
3.511929e+002,1.711359e+001
3.531214e+002,2.192101e+001
3.550499e+002,2.485487e+001
3.569783e+002,2.371334e+001
3.589068e+002,1.860440e+001
3.608353e+002,1.563330e+001
3.627637e+002,1.653372e+001
3.646922e+002,1.824336e+001
3.666207e+002,1.910470e+001
3.685491e+002,1.922997e+001
3.704776e+002,1.806839e+001
3.724061e+002,1.372196e+001
3.743345e+002,7.796811e+000
3.762630e+002,5.879138e+000
3.781915e+002,1.137678e+001
3.801199e+002,1.698308e+001
3.820484e+002,1.909955e+001
3.839769e+002,1.552010e+001
3.859053e+002,1.368408e+001
3.878338e+002,1.572236e+001
3.897623e+002,1.919050e+001
3.916907e+002,1.982137e+001
3.936192e+002,1.493374e+001
3.955477e+002,1.190817e+001
3.974761e+002,1.401827e+001
3.994046e+002,2.273251e+001
4.013331e+002,2.812529e+001
4.032615e+002,2.919119e+001
4.051900e+002,2.781088e+001
4.071185e+002,2.511340e+001
4.090469e+002,2.008543e+001
4.109754e+002,1.678624e+001
4.129039e+002,1.687803e+001
4.148323e+002,1.976811e+001
4.167608e+002,2.161404e+001
4.186893e+002,2.167507e+001
4.206177e+002,2.143829e+001
4.225462e+002,2.159309e+001
4.244747e+002,2.219594e+001
4.264032e+002,2.269674e+001
4.283316e+002,2.358863e+001
4.302601e+002,2.422107e+001
4.321886e+002,2.309064e+001
4.341170e+002,1.801723e+001
4.360455e+002,1.473410e+001
4.379740e+002,1.665749e+001
4.399024e+002,2.318113e+001
4.418309e+002,2.706813e+001
4.437594e+002,2.574386e+001
4.456878e+002,2.307310e+001
4.476163e+002,2.164850e+001
4.495448e+002,2.170445e+001
4.514732e+002,2.188718e+001
4.534017e+002,2.218788e+001
4.553302e+002,2.241968e+001
4.572586e+002,2.207334e+001
4.591871e+002,1.954017e+001
4.611156e+002,1.795230e+001
4.630440e+002,1.916403e+001
4.649725e+002,2.307339e+001
4.669010e+002,2.540957e+001
4.688294e+002,2.322590e+001
4.707579e+002,2.067545e+001
4.726864e+002,2.107039e+001
4.746148e+002,2.877798e+001
4.765433e+002,3.430573e+001
4.784718e+002,3.551239e+001
4.804002e+002,3.394616e+001
4.823287e+002,3.376331e+001
4.842572e+002,3.528852e+001
4.861856e+002,3.810989e+001
4.881141e+002,4.050714e+001
4.900426e+002,4.002006e+001
4.919710e+002,4.922961e+001
4.938995e+002,5.060265e+001
4.958280e+002,7.189516e+001
4.977564e+002,1.365873e+002
4.996849e+002,2.510710e+002
5.016134e+002,3.882473e+002
5.035418e+002,5.786758e+002
5.054703e+002,7.954545e+002
5.073988e+002,9.201724e+002
5.093272e+002,9.349123e+002
5.112557e+002,8.913621e+002
5.131842e+002,7.815906e+002
5.151127e+002,6.104002e+002
5.170411e+002,4.601639e+002
5.189696e+002,3.464139e+002
5.208981e+002,2.561964e+002
5.228265e+002,1.833903e+002
5.247550e+002,1.305407e+002
5.266835e+002,8.929382e+001
5.286119e+002,6.235244e+001
5.305404e+002,4.635677e+001
5.324689e+002,3.566292e+001
5.343973e+002,3.508666e+001
5.363258e+002,3.426049e+001
5.382543e+002,2.893272e+001
5.401827e+002,1.858546e+001
5.421112e+002,1.262730e+001
5.440397e+002,1.416180e+001
5.459681e+002,1.785545e+001
5.478966e+002,2.071874e+001
5.498251e+002,2.287422e+001
5.517535e+002,2.365171e+001
5.536820e+002,2.252827e+001
5.556105e+002,2.031976e+001
5.575389e+002,1.810778e+001
5.594674e+002,1.524297e+001
5.613959e+002,1.356290e+001
5.633243e+002,1.471083e+001
5.652528e+002,1.785234e+001
5.671813e+002,1.933441e+001
5.691097e+002,1.706578e+001
5.710382e+002,1.480427e+001
5.729667e+002,1.418804e+001
5.748951e+002,1.538491e+001
5.768236e+002,1.630949e+001
5.787521e+002,1.698620e+001
5.806805e+002,1.711492e+001
5.826090e+002,1.634883e+001
5.845375e+002,1.372779e+001
5.864659e+002,1.209466e+001
5.883944e+002,1.200734e+001
5.903229e+002,1.303247e+001
5.922513e+002,1.450744e+001
5.941798e+002,1.730876e+001
5.961083e+002,1.884684e+001
5.980367e+002,1.710173e+001
5.999652e+002,1.252925e+001
6.018937e+002,1.069033e+001
6.038221e+002,1.448667e+001
6.057506e+002,1.828564e+001
6.076791e+002,1.925815e+001
6.096075e+002,1.736901e+001
6.115360e+002,1.620706e+001
6.134645e+002,1.647267e+001
6.153929e+002,1.748879e+001
6.173214e+002,1.898948e+001
6.192499e+002,2.236391e+001
6.211783e+002,2.343830e+001
6.231068e+002,2.002804e+001
6.250353e+002,1.488609e+001
6.269637e+002,1.234951e+001
6.288922e+002,1.322139e+001
6.308207e+002,1.441595e+001
6.327491e+002,1.490487e+001
6.346776e+002,1.488845e+001
6.366061e+002,1.519799e+001
6.385345e+002,1.559955e+001
6.404630e+002,1.653631e+001
6.423915e+002,1.886513e+001
6.443199e+002,2.227794e+001
6.462484e+002,2.408937e+001
6.481769e+002,2.286819e+001
6.501053e+002,2.113845e+001
6.520338e+002,2.041610e+001
6.539623e+002,2.143111e+001
6.558907e+002,2.133365e+001
6.578192e+002,1.821097e+001
6.597477e+002,1.512809e+001
6.616761e+002,1.585847e+001
6.636046e+002,2.142478e+001
6.655331e+002,2.493861e+001
6.674615e+002,2.272296e+001
6.693900e+002,1.805167e+001
6.713185e+002,1.503287e+001
6.732469e+002,1.576338e+001
6.751754e+002,1.581800e+001
6.771039e+002,1.334920e+001
6.790323e+002,9.927651e+000
6.809608e+002,9.679895e+000
6.828893e+002,1.431140e+001
6.848177e+002,1.929989e+001
6.867462e+002,2.384998e+001
6.886747e+002,2.787999e+001
6.906031e+002,2.866598e+001
6.925316e+002,2.273005e+001
6.944601e+002,1.697066e+001
6.963885e+002,1.430212e+001
6.983170e+002,1.461118e+001
7.002455e+002,1.559689e+001
7.021740e+002,1.822293e+001
7.041024e+002,2.032493e+001
7.060309e+002,2.048426e+001
7.079594e+002,1.786716e+001
7.098878e+002,1.591095e+001
7.118163e+002,1.459403e+001
7.137448e+002,1.398057e+001
7.156732e+002,1.475720e+001
7.176017e+002,1.739965e+001
7.195302e+002,1.830230e+001
7.214586e+002,1.409845e+001
7.233871e+002,9.112396e+000
7.253156e+002,8.016901e+000
7.272440e+002,1.450186e+001
7.291725e+002,1.861631e+001
7.311010e+002,1.822195e+001
7.330294e+002,1.516733e+001
7.349579e+002,1.221810e+001
7.368864e+002,8.119486e+000
7.388149e+002,6.914145e+000
7.407433e+002,1.288017e+001
7.426718e+002,2.254349e+001
7.446003e+002,2.809755e+001
7.465287e+002,2.600516e+001
7.484572e+002,2.360746e+001
7.503857e+002,2.208640e+001
7.523141e+002,2.133491e+001
7.542426e+002,2.081320e+001
7.561711e+002,2.100036e+001
7.580995e+002,2.069426e+001
7.600280e+002,1.877286e+001
7.619565e+002,1.568447e+001
7.638849e+002,1.396453e+001
7.658134e+002,1.538879e+001
7.677419e+002,1.663941e+001
7.696703e+002,1.595556e+001
7.715988e+002,1.342688e+001
7.735273e+002,1.348323e+001
7.754557e+002,1.920213e+001
7.773842e+002,2.412474e+001
7.793127e+002,2.458548e+001
7.812411e+002,2.094742e+001
7.831696e+002,1.777750e+001
7.850981e+002,1.512779e+001
7.870266e+002,1.344344e+001
7.889550e+002,1.296257e+001
7.908835e+002,1.382573e+001
7.928120e+002,1.563844e+001
7.947404e+002,1.987040e+001
7.966689e+002,2.385703e+001
7.985974e+002,2.625365e+001
8.005258e+002,2.711687e+001
8.024543e+002,2.674118e+001
8.043828e+002,2.420958e+001
8.063112e+002,2.112485e+001
8.082397e+002,1.800756e+001
8.101682e+002,1.439463e+001
8.120966e+002,1.265221e+001
8.140251e+002,1.417127e+001
8.159536e+002,1.650095e+001
8.178820e+002,1.819921e+001
8.198105e+002,1.931626e+001
8.217390e+002,1.977750e+001
8.236674e+002,1.897202e+001
8.255959e+002,1.794262e+001
8.275244e+002,1.719103e+001
8.294528e+002,1.654367e+001
8.313813e+002,1.671704e+001
8.333098e+002,1.923393e+001
8.352382e+002,2.146869e+001
8.371667e+002,2.050706e+001
8.390952e+002,1.620752e+001
8.410236e+002,1.386904e+001
8.429521e+002,1.657865e+001
8.448806e+002,2.006653e+001
8.468090e+002,2.149520e+001
8.487375e+002,2.002910e+001
8.506660e+002,1.854030e+001
8.525944e+002,1.556787e+001
8.545229e+002,1.363498e+001
8.564514e+002,1.595213e+001
8.583798e+002,2.282134e+001
8.603083e+002,2.699607e+001
8.622368e+002,2.575682e+001
8.641652e+002,2.274353e+001
8.660937e+002,2.018424e+001
8.680222e+002,1.806692e+001
8.699506e+002,1.652561e+001
8.718791e+002,1.511928e+001
8.738076e+002,1.456945e+001
8.757360e+002,1.586390e+001
8.776645e+002,1.935442e+001
8.795930e+002,2.162939e+001
8.815214e+002,2.217345e+001
8.834499e+002,2.168768e+001
8.853784e+002,2.015651e+001
8.873068e+002,1.753959e+001
8.892353e+002,1.599198e+001
8.911638e+002,1.606030e+001
8.930922e+002,1.703274e+001
8.950207e+002,1.907516e+001
8.969492e+002,2.242101e+001
8.988776e+002,2.447460e+001
9.008061e+002,2.489768e+001
9.027346e+002,2.441438e+001
9.046630e+002,2.241956e+001
9.065915e+002,1.946148e+001
9.085200e+002,1.854254e+001
9.104484e+002,2.112193e+001
9.123769e+002,2.439491e+001
9.143054e+002,2.713055e+001
9.162338e+002,2.940489e+001
9.181623e+002,3.267972e+001
9.200908e+002,3.817931e+001
9.220192e+002,4.330016e+001
9.239477e+002,4.723411e+001
9.258762e+002,5.007537e+001
9.278046e+002,5.225942e+001
9.297331e+002,5.327922e+001
9.316616e+002,5.448664e+001
9.335900e+002,5.678379e+001
9.355185e+002,5.963686e+001
9.374470e+002,6.153117e+001
9.393754e+002,6.177911e+001
9.413039e+002,6.190331e+001
9.432324e+002,6.087531e+001
9.451608e+002,6.014270e+001
9.470893e+002,6.357872e+001
9.490178e+002,7.413707e+001
9.509462e+002,8.048055e+001
9.528747e+002,7.600975e+001
9.548032e+002,6.776424e+001
9.567316e+002,6.377496e+001
9.586601e+002,6.546880e+001
9.605886e+002,6.665917e+001
9.625170e+002,6.610093e+001
9.644455e+002,6.471333e+001
9.663740e+002,6.313266e+001
9.683024e+002,6.101830e+001
9.702309e+002,5.964387e+001
9.721594e+002,5.899850e+001
9.740878e+002,5.910147e+001
9.760163e+002,6.109430e+001
9.779448e+002,6.471907e+001
9.798733e+002,6.508757e+001
9.818018e+002,5.930788e+001
9.837302e+002,5.255098e+001
9.856587e+002,4.704817e+001
9.875872e+002,4.282838e+001
9.895156e+002,3.930301e+001
9.914441e+002,3.679276e+001
9.933726e+002,3.460634e+001
9.953010e+002,3.270761e+001
9.972295e+002,3.101425e+001
9.991580e+002,2.897687e+001
1.001086e+003,2.558351e+001
1.003015e+003,2.388837e+001
1.004943e+003,2.735023e+001
1.006872e+003,3.247445e+001
1.008800e+003,3.327842e+001
1.010729e+003,2.721196e+001
1.012657e+003,2.271852e+001
1.014586e+003,2.229624e+001
1.016514e+003,2.340641e+001
1.018443e+003,2.329454e+001
1.020371e+003,2.123651e+001
1.022300e+003,1.970704e+001
1.024228e+003,1.960744e+001
1.026156e+003,1.940170e+001
1.028085e+003,1.720405e+001
1.030013e+003,1.332467e+001
1.031942e+003,1.189192e+001
1.033870e+003,1.600626e+001
1.035799e+003,1.942126e+001
1.037727e+003,1.892326e+001
1.039656e+003,1.483349e+001
1.041584e+003,1.147856e+001
1.043513e+003,8.307366e+000
1.045441e+003,6.556455e+000
1.047370e+003,6.989343e+000
1.049298e+003,9.001682e+000
1.051227e+003,1.136408e+001
1.053155e+003,1.449763e+001
1.055083e+003,1.682040e+001
1.057012e+003,1.763217e+001
1.058940e+003,1.759885e+001
1.060869e+003,1.748610e+001
1.062797e+003,1.740880e+001
1.064726e+003,1.647904e+001
1.066654e+003,1.289941e+001
1.068583e+003,9.851336e+000
1.070511e+003,9.343344e+000
1.072440e+003,1.164394e+001
1.074368e+003,1.361030e+001
1.076297e+003,1.564465e+001
1.078225e+003,1.695075e+001
1.080154e+003,1.678330e+001
1.082082e+003,1.569004e+001
1.084010e+003,1.531307e+001
1.085939e+003,1.603546e+001
1.087867e+003,1.650079e+001
1.089796e+003,1.643588e+001
1.091724e+003,1.577222e+001
1.093653e+003,1.389992e+001
1.095581e+003,9.646170e+000
1.097510e+003,8.086534e+000
1.099438e+003,1.284283e+001
1.101367e+003,1.765796e+001
1.103295e+003,1.794736e+001
1.105224e+003,1.318447e+001
1.107152e+003,1.029860e+001
1.109081e+003,1.030516e+001
1.111009e+003,1.095746e+001
1.112938e+003,1.206428e+001
1.114866e+003,1.317309e+001
1.116794e+003,1.308800e+001
1.118723e+003,1.118544e+001
1.120651e+003,9.720341e+000
1.122580e+003,9.576553e+000
1.124508e+003,1.011387e+001
1.126437e+003,1.089351e+001
1.128365e+003,1.228304e+001
1.130294e+003,1.270675e+001
1.132222e+003,1.106148e+001
1.134151e+003,9.504170e+000
1.136079e+003,9.516662e+000
1.138008e+003,1.096749e+001
1.139936e+003,1.149953e+001
1.141865e+003,1.077054e+001
1.143793e+003,9.658083e+000
1.145721e+003,7.178449e+000
1.147650e+003,4.981878e+000
1.149578e+003,6.017233e+000
1.151507e+003,1.130776e+001
1.153435e+003,1.530415e+001
1.155364e+003,1.597563e+001
1.157292e+003,1.543293e+001
1.159221e+003,1.491177e+001
1.161149e+003,1.448679e+001
1.163078e+003,1.359510e+001
1.165006e+003,1.133499e+001
1.166935e+003,9.675511e+000
1.168863e+003,9.272761e+000
1.170792e+003,9.916300e+000
1.172720e+003,1.126165e+001
1.174648e+003,1.397959e+001
1.176577e+003,1.559241e+001
1.178505e+003,1.421200e+001
1.180434e+003,1.251462e+001
1.182362e+003,1.346388e+001
1.184291e+003,1.690508e+001
1.186219e+003,1.794608e+001
1.188148e+003,1.381086e+001
1.190076e+003,1.010907e+001
1.192005e+003,9.785800e+000
1.193933e+003,1.170616e+001
1.195862e+003,1.198298e+001
1.197790e+003,8.094762e+000
1.199719e+003,6.633750e+000
1.201647e+003,1.079500e+001
1.203575e+003,1.578787e+001
1.205504e+003,1.682978e+001
1.207432e+003,1.323454e+001
1.209361e+003,1.079235e+001
1.211289e+003,9.798051e+000
1.213218e+003,9.720455e+000
1.215146e+003,1.113492e+001
1.217075e+003,1.315405e+001
1.219003e+003,1.411427e+001
1.220932e+003,1.399328e+001
1.222860e+003,1.276885e+001
1.224789e+003,8.704619e+000
1.226717e+003,4.899850e+000
1.228646e+003,3.824054e+000
1.230574e+003,5.763774e+000
1.232502e+003,7.551117e+000
1.234431e+003,9.821619e+000
1.236359e+003,1.107399e+001
1.238288e+003,1.020054e+001
1.240216e+003,8.183842e+000
1.242145e+003,7.088510e+000
1.244073e+003,7.432312e+000
1.246002e+003,7.376517e+000
1.247930e+003,5.435252e+000
1.249859e+003,4.235321e+000
1.251787e+003,6.539390e+000
1.253716e+003,1.133328e+001
1.255644e+003,1.401504e+001
1.257573e+003,1.358966e+001
1.259501e+003,1.263329e+001
1.261429e+003,1.131208e+001
1.263358e+003,1.036879e+001
1.265286e+003,1.100082e+001
1.267215e+003,1.360166e+001
1.269143e+003,1.523360e+001
1.271072e+003,1.615946e+001
1.273000e+003,1.533099e+001
1.274929e+003,9.589397e+000
1.276857e+003,1.581394e+000
1.278786e+003,2.329006e-001
1.280714e+003,1.479514e+001
1.282643e+003,2.269941e+001
1.284571e+003,1.814851e+001
1.286500e+003,1.098782e+001
1.288428e+003,8.828946e+000
1.290356e+003,1.133279e+001
1.292285e+003,1.349432e+001
1.294213e+003,1.606614e+001
1.296142e+003,1.665757e+001
1.298070e+003,1.221768e+001
1.299999e+003,6.570319e+000
1.301927e+003,4.059811e+000
1.303856e+003,4.852024e+000
1.305784e+003,6.527324e+000
1.307713e+003,9.757663e+000
1.309641e+003,1.240549e+001
1.311570e+003,1.334649e+001
1.313498e+003,1.309175e+001
1.315427e+003,1.300808e+001
1.317355e+003,1.328602e+001
1.319283e+003,1.331521e+001
1.321212e+003,1.300768e+001
1.323140e+003,1.248989e+001
1.325069e+003,1.139269e+001
1.326997e+003,9.890288e+000
1.328926e+003,9.992545e+000
1.330854e+003,1.337943e+001
1.332783e+003,1.558693e+001
1.334711e+003,1.475647e+001
1.336640e+003,1.324816e+001
1.338568e+003,1.402588e+001
1.340497e+003,1.675086e+001
1.342425e+003,1.679097e+001
1.344354e+003,1.210063e+001
1.346282e+003,7.880806e+000
1.348210e+003,6.243484e+000
1.350139e+003,6.181698e+000
1.352068e+003,6.574646e+000
1.353996e+003,7.417252e+000
1.355924e+003,8.828791e+000
1.357853e+003,1.174365e+001
1.359781e+003,1.391476e+001
1.361710e+003,1.400449e+001
1.363638e+003,1.291811e+001
1.365567e+003,1.242078e+001
1.367495e+003,1.255774e+001
1.369424e+003,1.318277e+001
1.371352e+003,1.614965e+001
1.373281e+003,1.757960e+001
1.375209e+003,1.406747e+001
1.377138e+003,7.552528e+000
1.379066e+003,4.377703e+000
1.380995e+003,5.093921e+000
1.382923e+003,8.058672e+000
1.384851e+003,1.732615e+001
1.386780e+003,2.494276e+001
1.388708e+003,2.404841e+001
1.390637e+003,1.697470e+001
1.392565e+003,1.409914e+001
1.394494e+003,1.713837e+001
1.396422e+003,1.900490e+001
1.398351e+003,1.656145e+001
1.400279e+003,1.368847e+001
1.402208e+003,1.389348e+001
1.404136e+003,1.600505e+001
1.406065e+003,1.537713e+001
1.407993e+003,1.045595e+001
1.409922e+003,6.721291e+000
1.411850e+003,5.426253e+000
1.413778e+003,6.230562e+000
1.415707e+003,1.056943e+001
1.417635e+003,1.775888e+001
1.419564e+003,1.988778e+001
1.421492e+003,1.322466e+001
1.423421e+003,8.483913e+000
1.425349e+003,9.654494e+000
1.427278e+003,1.180694e+001
1.429206e+003,1.026234e+001
1.431135e+003,5.109908e+000
1.433063e+003,3.231037e+000
1.434992e+003,8.360985e+000
1.436920e+003,1.168488e+001
1.438849e+003,1.003963e+001
1.440777e+003,7.971152e+000
1.442705e+003,1.040172e+001
1.444634e+003,1.693853e+001
1.446562e+003,1.915842e+001
1.448491e+003,1.393114e+001
1.450419e+003,1.016707e+001
1.452348e+003,1.130294e+001
1.454276e+003,1.295371e+001
1.456205e+003,1.083536e+001
1.458133e+003,5.748056e+000
1.460062e+003,2.528480e+000
1.461990e+003,1.533016e+000
1.463919e+003,1.763043e+000
1.465847e+003,3.584788e+000
1.467776e+003,6.001367e+000
1.469704e+003,9.113573e+000
1.471632e+003,1.229006e+001
1.473561e+003,1.270863e+001
1.475489e+003,8.982735e+000
1.477418e+003,6.976493e+000
1.479346e+003,1.035033e+001
1.481275e+003,1.372137e+001
1.483203e+003,1.307124e+001
1.485132e+003,9.586147e+000
1.487060e+003,7.807693e+000
1.488989e+003,8.167114e+000
1.490917e+003,9.112718e+000
1.492846e+003,1.148385e+001
1.494774e+003,1.314860e+001
1.496703e+003,1.255279e+001
1.498631e+003,1.049915e+001
1.500559e+003,9.360629e+000
1.502488e+003,9.491111e+000
1.504416e+003,9.518756e+000
1.506345e+003,8.621737e+000
1.508273e+003,8.425311e+000
1.510202e+003,1.079212e+001
1.512130e+003,1.388705e+001
1.514059e+003,1.372605e+001
1.515987e+003,8.045051e+000
1.517916e+003,6.185004e+000
1.519844e+003,1.148746e+001
1.521773e+003,1.604659e+001
1.523701e+003,1.763096e+001
1.525630e+003,1.706177e+001
1.527558e+003,1.457881e+001
1.529486e+003,9.694395e+000
1.531415e+003,7.616988e+000
1.533343e+003,1.135319e+001
1.535272e+003,1.369490e+001
1.537200e+003,1.229449e+001
1.539129e+003,9.629179e+000
1.541057e+003,7.375735e+000
1.542986e+003,5.694001e+000
1.544914e+003,5.670311e+000
1.546843e+003,7.889393e+000
1.548771e+003,1.023184e+001
1.550700e+003,1.304718e+001
1.552628e+003,1.511698e+001
1.554557e+003,1.535923e+001
1.556485e+003,1.426233e+001
1.558413e+003,1.287557e+001
1.560342e+003,1.095658e+001
1.562270e+003,1.047857e+001
1.564199e+003,1.329520e+001
1.566127e+003,1.544645e+001
1.568056e+003,1.416244e+001
1.569984e+003,1.157789e+001
1.571913e+003,1.048999e+001
1.573841e+003,1.085919e+001
1.575770e+003,1.161461e+001
1.577698e+003,1.322777e+001
1.579627e+003,1.386650e+001
1.581555e+003,1.214879e+001
1.583484e+003,9.815683e+000
1.585412e+003,7.480398e+000
1.587340e+003,5.626820e+000
1.589269e+003,6.905021e+000
1.591197e+003,1.263688e+001
1.593126e+003,1.649046e+001
1.595054e+003,1.594642e+001
1.596983e+003,1.448472e+001
1.598911e+003,1.452088e+001
1.600840e+003,1.472883e+001
1.602768e+003,1.143399e+001
1.604697e+003,4.069391e+000
1.606625e+003,1.301550e+000
1.608554e+003,6.918730e+000
1.610482e+003,1.205078e+001
1.612411e+003,1.321371e+001
1.614339e+003,1.297578e+001
1.616267e+003,1.403407e+001
1.618196e+003,1.599187e+001
1.620124e+003,1.473892e+001
1.622053e+003,8.143134e+000
1.623981e+003,4.382023e+000
1.625910e+003,7.405197e+000
1.627838e+003,1.102089e+001
1.629767e+003,1.256785e+001
1.631695e+003,1.267127e+001
1.633624e+003,1.242913e+001
1.635552e+003,1.181366e+001
1.637481e+003,1.096136e+001
1.639409e+003,8.992111e+000
1.641338e+003,8.307836e+000
1.643266e+003,1.107037e+001
1.645194e+003,1.387081e+001
1.647123e+003,1.362485e+001
1.649051e+003,1.091699e+001
1.650980e+003,8.974413e+000
1.652908e+003,7.603866e+000
1.654837e+003,7.572677e+000
1.656765e+003,1.077865e+001
1.658694e+003,1.313443e+001
1.660622e+003,1.243261e+001
1.662551e+003,1.063882e+001
1.664479e+003,1.047198e+001
1.666408e+003,1.207483e+001
1.668336e+003,1.220809e+001
1.670265e+003,9.582915e+000
1.672193e+003,8.075763e+000
1.674121e+003,9.450799e+000
1.676050e+003,1.070718e+001
1.677978e+003,9.363630e+000
1.679907e+003,7.052937e+000
1.681835e+003,7.359570e+000
1.683764e+003,1.089140e+001
1.685692e+003,1.417074e+001
1.687621e+003,1.890277e+001
1.689549e+003,2.045580e+001
1.691478e+003,1.484863e+001
1.693406e+003,8.842062e+000
1.695335e+003,7.370035e+000
1.697263e+003,9.347211e+000
1.699192e+003,1.156507e+001
1.701120e+003,1.466063e+001
1.703048e+003,1.566994e+001
1.704977e+003,1.208150e+001
1.706905e+003,9.620843e+000
1.708834e+003,1.095377e+001
1.710762e+003,1.289579e+001
1.712691e+003,1.208856e+001
1.714619e+003,9.329022e+000
1.716548e+003,9.118747e+000
1.718476e+003,1.251441e+001
1.720405e+003,1.494275e+001
1.722333e+003,1.558675e+001
1.724262e+003,1.578922e+001
1.726190e+003,1.576709e+001
1.728119e+003,1.561967e+001
1.730047e+003,1.558834e+001
1.731975e+003,1.557164e+001
1.733904e+003,1.483136e+001
1.735832e+003,1.331601e+001
1.737761e+003,1.118258e+001
1.739689e+003,6.496429e+000
1.741618e+003,3.967700e+000
1.743546e+003,6.697922e+000
1.745475e+003,1.101192e+001
1.747403e+003,1.332613e+001
1.749332e+003,1.392333e+001
1.751260e+003,1.523559e+001
1.753189e+003,1.791785e+001
1.755117e+003,1.837479e+001
1.757046e+003,1.351371e+001
1.758974e+003,1.047796e+001
1.760902e+003,1.422399e+001
1.762831e+003,1.888101e+001
1.764759e+003,1.855758e+001
1.766688e+003,1.447637e+001
1.768616e+003,1.233576e+001
1.770545e+003,1.262838e+001
1.772473e+003,1.229528e+001
1.774402e+003,1.004194e+001
1.776330e+003,8.636844e+000
1.778259e+003,9.637269e+000
1.780187e+003,1.149993e+001
1.782116e+003,1.376613e+001
1.784044e+003,1.580565e+001
1.785973e+003,1.504759e+001
1.787901e+003,1.112374e+001
1.789829e+003,1.038869e+001
1.791758e+003,1.550830e+001
1.793686e+003,1.951542e+001
1.795615e+003,1.953164e+001
1.797543e+003,1.812326e+001
1.799472e+003,1.631655e+001
1.801400e+003,1.467627e+001
1.803329e+003,1.486777e+001
1.805257e+003,1.678749e+001
1.807186e+003,1.629820e+001
1.809114e+003,1.162312e+001
1.811043e+003,8.681381e+000
1.812971e+003,1.059892e+001
1.814900e+003,1.290695e+001
1.816828e+003,1.286192e+001
1.818756e+003,1.188919e+001
1.820685e+003,1.209412e+001
1.822613e+003,1.328391e+001
1.824542e+003,1.396131e+001
1.826470e+003,1.402409e+001
1.828399e+003,1.379571e+001
1.830327e+003,1.371449e+001
1.832256e+003,1.284580e+001
1.834184e+003,9.073462e+000
1.836113e+003,5.877103e+000
1.838041e+003,8.234105e+000
1.839970e+003,1.396491e+001
1.841898e+003,1.456123e+001
1.843827e+003,7.753886e+000
1.845755e+003,4.183874e+000
1.847684e+003,5.936476e+000
1.849612e+003,7.846012e+000
1.851541e+003,8.743246e+000
1.853469e+003,9.826205e+000
1.855397e+003,1.237868e+001
1.857326e+003,1.530887e+001
1.859254e+003,1.680485e+001
1.861183e+003,1.684591e+001
1.863111e+003,1.634480e+001
1.865040e+003,1.504713e+001
1.866968e+003,1.378607e+001
1.868897e+003,1.197033e+001
1.870825e+003,1.107467e+001
1.872754e+003,1.202095e+001
1.874682e+003,1.360909e+001
1.876611e+003,1.556075e+001
1.878539e+003,1.724569e+001
1.880468e+003,1.614342e+001
1.882396e+003,1.196478e+001
1.884324e+003,1.019531e+001
1.886253e+003,1.213400e+001
1.888181e+003,1.380842e+001
1.890110e+003,1.455832e+001
1.892038e+003,1.444569e+001
1.893967e+003,1.299587e+001
1.895895e+003,1.108581e+001
1.897824e+003,9.409290e+000
1.899752e+003,8.033028e+000
1.901681e+003,7.266184e+000
1.903609e+003,7.142763e+000
1.905538e+003,7.041685e+000
1.907466e+003,6.760962e+000
1.909395e+003,6.824581e+000
1.911323e+003,7.604954e+000
1.913251e+003,8.523107e+000
1.915180e+003,9.576452e+000
1.917108e+003,1.038021e+001
1.919037e+003,1.010659e+001
1.920965e+003,9.033541e+000
1.922894e+003,8.882775e+000
1.924822e+003,9.798037e+000
1.926751e+003,1.105210e+001
1.928679e+003,1.409510e+001
1.930608e+003,1.527231e+001
1.932536e+003,1.213970e+001
1.934465e+003,9.018320e+000
1.936393e+003,8.456012e+000
1.938322e+003,9.250942e+000
1.940250e+003,1.017178e+001
1.942178e+003,1.109167e+001
1.944107e+003,1.088240e+001
1.946035e+003,8.909074e+000
1.947964e+003,8.520658e+000
1.949892e+003,1.063518e+001
1.951821e+003,1.287127e+001
1.953749e+003,1.618388e+001
1.955678e+003,1.762114e+001
1.957606e+003,1.440966e+001
1.959535e+003,9.690102e+000
1.961463e+003,5.989469e+000
1.963392e+003,3.752203e+000
1.965320e+003,5.326675e+000
1.967249e+003,1.083467e+001
1.969177e+003,1.375984e+001
1.971105e+003,1.222153e+001
1.973034e+003,1.211553e+001
1.974962e+003,1.702750e+001
1.976891e+003,2.071450e+001
1.978819e+003,1.954260e+001
1.980748e+003,1.661465e+001
1.982676e+003,1.321732e+001
1.984605e+003,1.069825e+001
1.986533e+003,1.396453e+001
1.988462e+003,2.369554e+001
1.990390e+003,2.663840e+001
1.992319e+003,1.615213e+001
1.994247e+003,1.055079e+001
1.996176e+003,1.469939e+001
1.998104e+003,1.703915e+001
2.000032e+003,1.322282e+001
2.001961e+003,8.186476e+000
2.003889e+003,3.457000e+000
2.005818e+003,5.074286e-001
2.007746e+003,2.553797e+000
2.009675e+003,8.649237e+000
2.011603e+003,1.301503e+001
2.013532e+003,1.553068e+001
2.015460e+003,1.695086e+001
2.017389e+003,1.722851e+001
2.019317e+003,1.678869e+001
2.021246e+003,1.485145e+001
2.023174e+003,1.369367e+001
2.025103e+003,1.572438e+001
2.027031e+003,1.773744e+001
2.028959e+003,1.603765e+001
2.030888e+003,1.280367e+001
2.032816e+003,1.318785e+001
2.034745e+003,1.677681e+001
2.036673e+003,1.566464e+001
2.038602e+003,6.093832e+000
2.040530e+003,2.881319e+000
2.042459e+003,1.417885e+001
2.044387e+003,1.970098e+001
2.046316e+003,1.083772e+001
2.048244e+003,2.442912e+000
2.050173e+003,1.965786e+000
2.052101e+003,4.376559e+000
2.054030e+003,4.790660e+000
2.055958e+003,4.551663e+000
2.057886e+003,7.797390e+000
2.059815e+003,1.390549e+001
2.061743e+003,1.556925e+001
2.063672e+003,1.174392e+001
2.065600e+003,1.020198e+001
2.067529e+003,1.310820e+001
2.069457e+003,1.540378e+001
2.071386e+003,1.518376e+001
2.073314e+003,1.455941e+001
2.075243e+003,1.487643e+001
2.077171e+003,1.494418e+001
2.079100e+003,1.328860e+001
2.081028e+003,1.080168e+001
2.082957e+003,8.967415e+000
2.084885e+003,7.825686e+000
2.086813e+003,8.121044e+000
2.088742e+003,1.065226e+001
2.090670e+003,1.213161e+001
2.092599e+003,1.140196e+001
2.094527e+003,1.197418e+001
2.096456e+003,1.615652e+001
2.098384e+003,1.903473e+001
2.100313e+003,1.781678e+001
2.102241e+003,1.588577e+001
2.104170e+003,1.628584e+001
2.106098e+003,1.665324e+001
2.108027e+003,1.249630e+001
2.109955e+003,6.006493e+000
2.111884e+003,4.365421e+000
2.113812e+003,7.627608e+000
2.115740e+003,9.836044e+000
2.117669e+003,1.067169e+001
2.119597e+003,1.047718e+001
2.121526e+003,7.753740e+000
2.123454e+003,6.353240e+000
2.125383e+003,7.908643e+000
2.127311e+003,9.920706e+000
2.129240e+003,1.196787e+001
2.131168e+003,1.318080e+001
2.133097e+003,1.203030e+001
2.135025e+003,9.902585e+000
2.136954e+003,9.354077e+000
2.138882e+003,1.010597e+001
2.140811e+003,1.088789e+001
2.142739e+003,1.167555e+001
2.144667e+003,1.196922e+001
2.146596e+003,1.150588e+001
2.148524e+003,1.163110e+001
2.150453e+003,1.282336e+001
2.152381e+003,1.419763e+001
2.154310e+003,1.724526e+001
2.156238e+003,1.813808e+001
2.158167e+003,1.173762e+001
2.160095e+003,5.518148e+000
2.162024e+003,7.820670e+000
2.163952e+003,1.398276e+001
2.165881e+003,1.556005e+001
2.167809e+003,1.355563e+001
2.169738e+003,1.451439e+001
2.171666e+003,1.854706e+001
2.173594e+003,1.787961e+001
2.175523e+003,1.097577e+001
2.177451e+003,6.287116e+000
2.179380e+003,5.262913e+000
2.181308e+003,6.234444e+000
2.183237e+003,1.021660e+001
2.185165e+003,1.384714e+001
2.187094e+003,1.667654e+001
2.189022e+003,1.755773e+001
2.190951e+003,1.356238e+001
2.192879e+003,8.781874e+000
2.194808e+003,9.430947e+000
2.196736e+003,1.325308e+001
2.198665e+003,1.349520e+001
2.200593e+003,1.031581e+001
2.202521e+003,9.950305e+000
2.204450e+003,1.270626e+001
2.206378e+003,1.457890e+001
2.208307e+003,1.527139e+001
2.210235e+003,1.488224e+001
2.212164e+003,1.310566e+001
2.214092e+003,1.103409e+001
2.216021e+003,7.159225e+000
2.217949e+003,5.584962e+000
2.219878e+003,1.142619e+001
2.221806e+003,1.678326e+001
2.223735e+003,1.353101e+001
2.225663e+003,7.639029e+000
2.227592e+003,7.454836e+000
2.229520e+003,1.089163e+001
2.231448e+003,1.191426e+001
2.233377e+003,1.091366e+001
2.235305e+003,1.236858e+001
2.237234e+003,1.644024e+001
2.239162e+003,1.739041e+001
2.241091e+003,1.387856e+001
2.243019e+003,1.229856e+001
2.244948e+003,1.510435e+001
2.246876e+003,1.686242e+001
2.248805e+003,1.588855e+001
2.250733e+003,1.392848e+001
2.252662e+003,9.409689e+000
2.254590e+003,6.798741e+000
2.256519e+003,1.101598e+001
2.258447e+003,1.646988e+001
2.260375e+003,1.728373e+001
2.262304e+003,1.580336e+001
2.264232e+003,1.637992e+001
2.266161e+003,1.795287e+001
2.268089e+003,1.653688e+001
2.270018e+003,1.265543e+001
2.271946e+003,1.159464e+001
2.273875e+003,1.398462e+001
2.275803e+003,1.555463e+001
2.277732e+003,1.651259e+001
2.279660e+003,1.544673e+001
2.281589e+003,9.405264e+000
2.283517e+003,5.923962e+000
2.285446e+003,7.728254e+000
2.287374e+003,1.007521e+001
2.289302e+003,1.199051e+001
2.291231e+003,1.335126e+001
2.293159e+003,1.437423e+001
2.295088e+003,1.450159e+001
2.297016e+003,1.172109e+001
2.298945e+003,8.908145e+000
2.300873e+003,1.168769e+001
2.302802e+003,1.690983e+001
2.304730e+003,1.569996e+001
2.306659e+003,9.177575e+000
2.308587e+003,6.429240e+000
2.310516e+003,7.882596e+000
2.312444e+003,9.606763e+000
2.314373e+003,1.144401e+001
2.316301e+003,1.482650e+001
2.318229e+003,2.077180e+001
2.320158e+003,2.448902e+001
2.322086e+003,2.499314e+001
2.324015e+003,2.341298e+001
2.325943e+003,1.870572e+001
2.327872e+003,1.398518e+001
2.329800e+003,9.062070e+000
2.331729e+003,6.147457e+000
2.333657e+003,7.749460e+000
2.335586e+003,1.064662e+001
2.337514e+003,1.249197e+001
2.339443e+003,1.369470e+001
2.341371e+003,1.504525e+001
2.343300e+003,1.598561e+001
2.345228e+003,1.523507e+001
2.347156e+003,1.321259e+001
2.349085e+003,1.099654e+001
2.351013e+003,8.670288e+000
2.352942e+003,6.828587e+000
2.354870e+003,5.139711e+000
2.356799e+003,6.201246e+000
2.358727e+003,1.158622e+001
2.360656e+003,1.525563e+001
2.362584e+003,1.689796e+001
2.364513e+003,1.718558e+001
2.366441e+003,1.596834e+001
2.368370e+003,1.391758e+001
2.370298e+003,9.992526e+000
2.372227e+003,7.634802e+000
2.374155e+003,9.828856e+000
2.376083e+003,1.181102e+001
2.378012e+003,9.413304e+000
2.379940e+003,7.980491e+000
2.381869e+003,1.456212e+001
2.383797e+003,2.085930e+001
2.385726e+003,1.604209e+001
2.387654e+003,7.627989e+000
2.389583e+003,6.528510e+000
2.391511e+003,9.677647e+000
2.393440e+003,1.117811e+001
2.395368e+003,1.160583e+001
2.397297e+003,1.385699e+001
2.399225e+003,1.756337e+001
2.401154e+003,1.708124e+001
2.403082e+003,1.151583e+001
2.405010e+003,9.176961e+000
2.406939e+003,1.094575e+001
2.408867e+003,1.132336e+001
2.410796e+003,9.568693e+000
2.412724e+003,8.839963e+000
2.414653e+003,9.900734e+000
2.416581e+003,1.093844e+001
2.418510e+003,1.124240e+001
2.420438e+003,1.202609e+001
2.422367e+003,1.444858e+001
2.424295e+003,1.613904e+001
2.426224e+003,1.619181e+001
2.428152e+003,1.545907e+001
2.430081e+003,1.378952e+001
2.432009e+003,1.214922e+001
2.433938e+003,1.057678e+001
2.435866e+003,9.845674e+000
2.437794e+003,1.131899e+001
2.439723e+003,1.324861e+001
2.441651e+003,1.347255e+001
2.443580e+003,1.307961e+001
2.445508e+003,1.455833e+001
2.447437e+003,1.630290e+001
2.449365e+003,1.384784e+001
2.451294e+003,8.635689e+000
2.453222e+003,5.515296e+000
2.455151e+003,4.542786e+000
2.457079e+003,7.105926e+000
2.459008e+003,1.265502e+001
2.460936e+003,1.416068e+001
2.462865e+003,1.077941e+001
2.464793e+003,8.507501e+000
2.466721e+003,7.648774e+000
2.468650e+003,6.739107e+000
2.470578e+003,5.273747e+000
2.472507e+003,6.206356e+000
2.474435e+003,1.080036e+001
2.476364e+003,1.340374e+001
2.478292e+003,1.233317e+001
2.480221e+003,1.104014e+001
2.482149e+003,1.121085e+001
2.484078e+003,9.950952e+000
2.486006e+003,2.980516e+000
2.487935e+003,4.080467e-002
2.489863e+003,8.476293e+000
2.491792e+003,1.511485e+001
2.493720e+003,1.370386e+001
2.495648e+003,1.154977e+001
2.497577e+003,1.278469e+001
2.499505e+003,1.443037e+001
2.501434e+003,1.508212e+001
2.503362e+003,1.467952e+001
2.505291e+003,1.135837e+001
2.507219e+003,8.825299e+000
2.509148e+003,1.284955e+001
2.511076e+003,1.811748e+001
2.513005e+003,1.740199e+001
2.514933e+003,1.419712e+001
2.516862e+003,1.372227e+001
2.518790e+003,1.431427e+001
2.520719e+003,1.288248e+001
2.522647e+003,1.001063e+001
2.524575e+003,6.441115e+000
2.526504e+003,2.895083e+000
2.528432e+003,2.380614e+000
2.530361e+003,4.649312e+000
2.532289e+003,9.405184e+000
2.534218e+003,1.581412e+001
2.536146e+003,1.861344e+001
2.538075e+003,1.763608e+001
2.540003e+003,1.486238e+001
2.541932e+003,9.730864e+000
2.543860e+003,8.455219e+000
2.545789e+003,1.171828e+001
2.547717e+003,1.450154e+001
2.549646e+003,1.672077e+001
2.551574e+003,1.785030e+001
2.553502e+003,1.773113e+001
2.555431e+003,1.741552e+001
2.557359e+003,1.751031e+001
2.559288e+003,1.600885e+001
2.561216e+003,1.078824e+001
2.563145e+003,7.899780e+000
2.565073e+003,8.778509e+000
2.567002e+003,8.711956e+000
2.568930e+003,5.933740e+000
2.570859e+003,5.464114e+000
2.572787e+003,1.076213e+001
2.574716e+003,1.374303e+001
2.576644e+003,8.729815e+000
2.578573e+003,6.712265e+000
2.580501e+003,1.354559e+001
2.582429e+003,1.898423e+001
2.584358e+003,2.077542e+001
2.586287e+003,1.995406e+001
2.588215e+003,1.542695e+001
2.590144e+003,1.099571e+001
2.592072e+003,8.458931e+000
2.594000e+003,6.390978e+000
2.595929e+003,2.220817e+000
2.597857e+003,8.977410e-001
2.599786e+003,9.438537e+000
2.601714e+003,1.574327e+001
2.603643e+003,1.055106e+001
2.605571e+003,4.779581e+000
2.607500e+003,6.304063e+000
2.609428e+003,9.249766e+000
2.611357e+003,9.271766e+000
2.613285e+003,8.904684e+000
2.615214e+003,9.989985e+000
2.617142e+003,1.186967e+001
2.619071e+003,1.586860e+001
2.620999e+003,1.828535e+001
2.622927e+003,1.311763e+001
2.624856e+003,7.746067e+000
2.626784e+003,1.206250e+001
2.628713e+003,1.779708e+001
2.630641e+003,1.400823e+001
2.632570e+003,7.749749e+000
2.634498e+003,6.798117e+000
2.636427e+003,9.228903e+000
2.638355e+003,1.554686e+001
2.640284e+003,2.112468e+001
2.642212e+003,1.761782e+001
2.644141e+003,1.130979e+001
2.646069e+003,1.310521e+001
2.647998e+003,1.730320e+001
2.649926e+003,1.271854e+001
2.651854e+003,5.459636e+000
2.653783e+003,7.053589e+000
2.655711e+003,1.201928e+001
2.657640e+003,1.158368e+001
2.659568e+003,8.293541e+000
2.661497e+003,5.182330e+000
2.663425e+003,3.800405e+000
2.665354e+003,9.397079e+000
2.667282e+003,1.794462e+001
2.669211e+003,2.151859e+001
2.671139e+003,2.117527e+001
2.673068e+003,1.702424e+001
2.674996e+003,1.179153e+001
2.676925e+003,1.217085e+001
2.678853e+003,1.577769e+001
2.680781e+003,1.712377e+001
2.682710e+003,1.703132e+001
2.684638e+003,1.779113e+001
2.686567e+003,1.850933e+001
2.688495e+003,1.730764e+001
2.690424e+003,1.460600e+001
2.692352e+003,9.827160e+000
2.694281e+003,5.079499e+000
2.696209e+003,7.491755e+000
2.698138e+003,1.360690e+001
2.700066e+003,1.411828e+001
2.701995e+003,1.155925e+001
2.703923e+003,1.176284e+001
2.705852e+003,1.332292e+001
2.707780e+003,1.274954e+001
2.709708e+003,1.084929e+001
2.711637e+003,8.807926e+000
2.713565e+003,7.506577e+000
2.715494e+003,9.775926e+000
2.717422e+003,1.392097e+001
2.719351e+003,1.747038e+001
2.721279e+003,1.971853e+001
2.723208e+003,1.839939e+001
2.725136e+003,1.504865e+001
2.727065e+003,1.238193e+001
2.728993e+003,1.050733e+001
2.730922e+003,1.023295e+001
2.732850e+003,1.051540e+001
2.734779e+003,8.799265e+000
2.736707e+003,6.876103e+000
2.738635e+003,8.457923e+000
2.740564e+003,1.190339e+001
2.742492e+003,1.556879e+001
2.744421e+003,1.806806e+001
2.746349e+003,1.638560e+001
2.748278e+003,1.312916e+001
2.750206e+003,1.191306e+001
2.752135e+003,1.167989e+001
2.754063e+003,1.114794e+001
2.755992e+003,1.041688e+001
2.757920e+003,8.828264e+000
2.759849e+003,7.934369e+000
2.761777e+003,1.032269e+001
2.763706e+003,1.344483e+001
2.765634e+003,1.474808e+001
2.767563e+003,1.489420e+001
2.769491e+003,1.468156e+001
2.771419e+003,1.353894e+001
2.773348e+003,9.116093e+000
2.775276e+003,5.735908e+000
2.777205e+003,9.257910e+000
2.779133e+003,1.299702e+001
2.781062e+003,9.584607e+000
2.782990e+003,6.067688e+000
2.784919e+003,8.372519e+000
2.786847e+003,1.197514e+001
2.788776e+003,1.470966e+001
2.790704e+003,1.686078e+001
2.792633e+003,1.952992e+001
2.794561e+003,2.038320e+001
2.796490e+003,1.602992e+001
2.798418e+003,1.264087e+001
2.800346e+003,1.342625e+001
2.802275e+003,1.475440e+001
2.804203e+003,1.543901e+001
2.806132e+003,1.539355e+001
2.808060e+003,1.285390e+001
2.809989e+003,1.257195e+001
2.811917e+003,1.832078e+001
2.813846e+003,2.105472e+001
2.815774e+003,1.717309e+001
2.817703e+003,1.213011e+001
2.819631e+003,5.613338e+000
2.821560e+003,1.861658e+000
2.823488e+003,1.916986e+000
2.825417e+003,4.041034e+000
2.827345e+003,8.652682e+000
2.829273e+003,1.287845e+001
2.831202e+003,1.711413e+001
2.833130e+003,1.765090e+001
2.835059e+003,1.146185e+001
2.836987e+003,8.472214e+000
2.838916e+003,9.542204e+000
2.840844e+003,9.140799e+000
2.842773e+003,6.526143e+000
2.844701e+003,6.418947e+000
2.846630e+003,9.962480e+000
2.848558e+003,9.989833e+000
2.850487e+003,6.169585e+000
2.852415e+003,7.792312e+000
2.854344e+003,1.411026e+001
2.856272e+003,1.708021e+001
2.858200e+003,1.652961e+001
2.860129e+003,1.218418e+001
2.862057e+003,5.509902e+000
2.863986e+003,6.900607e+000
2.865914e+003,1.283269e+001
2.867843e+003,1.025002e+001
2.869771e+003,3.706463e+000
2.871700e+003,3.202734e+000
2.873628e+003,6.716804e+000
2.875557e+003,1.312727e+001
2.877485e+003,1.847909e+001
2.879414e+003,1.351103e+001
2.881342e+003,7.239596e+000
2.883271e+003,1.178992e+001
2.885199e+003,1.777776e+001
2.887127e+003,1.420658e+001
2.889056e+003,9.744518e+000
2.890984e+003,1.209417e+001
2.892913e+003,1.504736e+001
2.894841e+003,1.477309e+001
2.896770e+003,1.393616e+001
2.898698e+003,1.366280e+001
2.900627e+003,1.362771e+001
2.902555e+003,1.327756e+001
2.904484e+003,1.411361e+001
2.906412e+003,1.747194e+001
2.908341e+003,1.995717e+001
2.910269e+003,1.987089e+001
2.912198e+003,2.040248e+001
2.914126e+003,2.305412e+001
2.916054e+003,2.165944e+001
2.917983e+003,1.440068e+001
2.919911e+003,1.071904e+001
2.921840e+003,1.328513e+001
2.923768e+003,1.339888e+001
2.925697e+003,1.056390e+001
2.927625e+003,1.047302e+001
2.929554e+003,1.266204e+001
2.931482e+003,9.082183e+000
2.933411e+003,9.631930e-001
2.935339e+003,-7.641909e-001
2.937268e+003,2.738349e+000
2.939196e+003,7.956583e+000
2.941125e+003,1.347997e+001
2.943053e+003,1.542997e+001
2.944981e+003,1.584703e+001
2.946910e+003,1.962975e+001
2.948838e+003,2.229179e+001
2.950767e+003,1.564756e+001
2.952695e+003,7.688725e+000
2.954624e+003,3.476708e+000
2.956552e+003,3.370733e+000
2.958481e+003,1.145123e+001
2.960409e+003,1.806891e+001
2.962338e+003,1.752265e+001
2.964266e+003,1.478733e+001
2.966195e+003,9.476134e+000
2.968123e+003,6.903578e+000
2.970052e+003,1.083454e+001
2.971980e+003,1.422354e+001
2.973908e+003,1.729665e+001
2.975837e+003,1.440217e+001
2.977765e+003,2.926076e+000
2.979694e+003,1.907648e+000
2.981622e+003,1.734019e+001
2.983551e+003,2.199796e+001
2.985479e+003,1.578998e+001
2.987408e+003,1.175153e+001
2.989336e+003,9.909207e+000
2.991265e+003,9.642455e+000
2.993193e+003,1.019786e+001
2.995122e+003,9.171103e+000
2.997050e+003,7.246885e+000
2.998979e+003,3.747251e+000
3.000907e+003,2.486079e+000
3.002835e+003,1.174144e+001
3.004764e+003,2.139325e+001
3.006692e+003,2.043314e+001
3.008621e+003,1.699544e+001
3.010549e+003,1.604464e+001
3.012478e+003,1.496090e+001
3.014406e+003,1.170686e+001
3.016335e+003,9.236314e+000
3.018263e+003,8.102281e+000
3.020192e+003,9.316362e+000
3.022120e+003,1.449667e+001
3.024049e+003,1.506120e+001
3.025977e+003,7.325117e+000
3.027906e+003,4.210515e+000
3.029834e+003,7.186537e+000
3.031762e+003,6.195691e+000
3.033691e+003,1.961792e+000
3.035619e+003,4.686705e+000
3.037548e+003,1.176580e+001
3.039476e+003,8.484857e+000
3.041405e+003,8.305457e-001
3.043333e+003,6.586222e+000
3.045262e+003,1.560963e+001
3.047190e+003,1.116232e+001
3.049119e+003,6.063676e+000
3.051047e+003,1.933043e+001
3.052976e+003,2.842175e+001
3.054904e+003,1.471489e+001
3.056833e+003,1.895715e+000
3.058761e+003,2.017000e+000
3.060689e+003,3.338798e+000
3.062618e+003,2.047585e+000
3.064546e+003,4.033452e+000
3.066475e+003,1.097595e+001
3.068403e+003,1.465426e+001
3.070332e+003,1.307774e+001
3.072260e+003,1.273448e+001
3.074189e+003,1.364637e+001
3.076117e+003,1.647536e+001
3.078046e+003,1.971771e+001
3.079974e+003,1.562576e+001
3.081903e+003,8.890668e+000
3.083831e+003,1.169907e+001
3.085760e+003,1.720874e+001
3.087688e+003,1.648490e+001
3.089616e+003,1.349234e+001
3.091545e+003,8.934989e+000
3.093473e+003,6.951161e+000
3.095402e+003,1.196571e+001
3.097330e+003,1.676727e+001
3.099259e+003,2.002735e+001
3.101187e+003,2.079268e+001
3.103116e+003,1.771403e+001
3.105044e+003,1.366445e+001
3.106973e+003,8.252823e+000
3.108901e+003,9.332581e+000
3.110830e+003,1.662892e+001
3.112758e+003,1.555485e+001
3.114687e+003,8.662006e+000
3.116615e+003,1.021377e+001
3.118543e+003,1.558199e+001
3.120472e+003,1.477770e+001
3.122400e+003,1.249010e+001
3.124329e+003,1.642686e+001
3.126257e+003,1.826424e+001
3.128186e+003,8.548114e+000
3.130114e+003,1.083117e+000
3.132043e+003,3.421569e+000
3.133971e+003,7.151124e+000
3.135900e+003,1.152520e+001
3.137828e+003,1.370758e+001
3.139757e+003,1.343400e+001
3.141685e+003,9.852117e+000
3.143614e+003,2.503531e+000
3.145542e+003,1.711743e+000
3.147470e+003,6.570308e+000
3.149399e+003,1.204911e+001
3.151327e+003,1.747032e+001
3.153256e+003,2.288672e+001
3.155184e+003,2.591808e+001
3.157113e+003,2.067593e+001
3.159041e+003,1.559900e+001
3.160970e+003,1.964098e+001
3.162898e+003,2.007657e+001
3.164827e+003,6.339706e+000
3.166755e+003,-2.448932e+000
3.168684e+003,-2.437522e+000
3.170612e+003,-9.922480e-001
3.172541e+003,7.836351e-001
3.174469e+003,5.921606e+000
3.176397e+003,1.429268e+001
3.178326e+003,1.271678e+001
3.180254e+003,5.643151e+000
3.182183e+003,6.801226e+000
3.184111e+003,1.126546e+001
3.186040e+003,1.082424e+001
3.187968e+003,9.983542e+000
3.189897e+003,1.285993e+001
3.191825e+003,1.601669e+001
3.193754e+003,1.892188e+001
3.195682e+003,1.907930e+001
3.197611e+003,1.521670e+001
3.199539e+003,1.207907e+001
3.201468e+003,1.039858e+001
3.203396e+003,9.325854e+000
3.205324e+003,8.796394e+000
3.207253e+003,8.343146e+000
3.209181e+003,8.097522e+000
3.211110e+003,8.266246e+000
3.213038e+003,9.029993e+000
3.214967e+003,1.147754e+001
3.216895e+003,1.358851e+001
3.218824e+003,1.356586e+001
3.220752e+003,1.315063e+001
3.222681e+003,1.197444e+001
3.224609e+003,1.349119e+001
3.226538e+003,1.968480e+001
3.228466e+003,2.063471e+001
3.230395e+003,1.428621e+001
3.232323e+003,1.460453e+001
3.234251e+003,2.049692e+001
3.236180e+003,1.608761e+001
3.238108e+003,7.517940e+000
3.240037e+003,8.324246e+000
3.241965e+003,1.174299e+001
3.243894e+003,8.737766e+000
3.245822e+003,7.064316e+000
3.247751e+003,1.318209e+001
3.249679e+003,1.702203e+001
3.251608e+003,1.312223e+001
3.253536e+003,1.023773e+001
3.255465e+003,9.096046e+000
3.257393e+003,7.582819e+000
3.259322e+003,5.737889e+000
3.261250e+003,6.960886e+000
3.263178e+003,1.003498e+001
3.265107e+003,1.022209e+001
3.267035e+003,1.100718e+001
3.268964e+003,1.917047e+001
3.270892e+003,2.596313e+001
3.272821e+003,2.561769e+001
3.274749e+003,2.157499e+001
3.276678e+003,1.181200e+001
3.278606e+003,7.703625e+000
3.280535e+003,1.207709e+001
3.282463e+003,1.528221e+001
3.284392e+003,1.677652e+001
3.286320e+003,1.357435e+001
3.288249e+003,8.241939e+000
3.290177e+003,7.142310e+000
3.292105e+003,8.437197e+000
3.294034e+003,1.225883e+001
3.295962e+003,1.385107e+001
3.297891e+003,6.104912e+000
3.299819e+003,4.011823e+000
3.301748e+003,1.282975e+001
3.303676e+003,1.759245e+001
3.305605e+003,1.503259e+001
3.307533e+003,1.390164e+001
3.309462e+003,1.372590e+001
3.311390e+003,9.871183e+000
3.313319e+003,6.272630e+000
3.315247e+003,1.231173e+001
3.317176e+003,1.896923e+001
3.319104e+003,1.842842e+001
3.321032e+003,1.580525e+001
3.322961e+003,1.105453e+001
3.324889e+003,9.905044e+000
3.326818e+003,1.387879e+001
3.328746e+003,1.454352e+001
3.330675e+003,1.168252e+001
3.332603e+003,1.260289e+001
3.334532e+003,1.560596e+001
3.336460e+003,1.512107e+001
3.338389e+003,1.404424e+001
3.340317e+003,1.683673e+001
3.342246e+003,1.796721e+001
3.344174e+003,1.256539e+001
3.346103e+003,9.392315e+000
3.348031e+003,1.091524e+001
3.349959e+003,1.234541e+001
3.351888e+003,1.322368e+001
3.353816e+003,1.624707e+001
3.355745e+003,1.909251e+001
3.357673e+003,1.312208e+001
3.359602e+003,5.026489e+000
3.361530e+003,2.620071e+000
3.363459e+003,4.020526e+000
3.365387e+003,1.135052e+001
3.367316e+003,1.563908e+001
3.369244e+003,1.353829e+001
3.371173e+003,1.245069e+001
3.373101e+003,1.277280e+001
3.375030e+003,1.185098e+001
3.376958e+003,9.814819e+000
3.378886e+003,5.357511e+000
3.380815e+003,2.608561e+000
3.382743e+003,9.128204e+000
3.384672e+003,1.449324e+001
3.386600e+003,1.066004e+001
3.388529e+003,7.747527e+000
3.390457e+003,7.561014e+000
3.392386e+003,9.619400e+000
3.394314e+003,1.384841e+001
3.396243e+003,1.394280e+001
3.398171e+003,1.176379e+001
3.400100e+003,1.222146e+001
3.402028e+003,1.301036e+001
3.403957e+003,1.056756e+001
3.405885e+003,9.294545e+000
3.407813e+003,1.114031e+001
3.409742e+003,1.473591e+001
3.411670e+003,2.085445e+001
3.413599e+003,2.105330e+001
3.415527e+003,1.646890e+001
3.417456e+003,1.684378e+001
3.419384e+003,1.948385e+001
3.421313e+003,2.031544e+001
3.423241e+003,1.876169e+001
3.425170e+003,1.211560e+001
3.427098e+003,7.112428e+000
3.429027e+003,4.784811e+000
3.430955e+003,9.465978e+000
3.432884e+003,2.186633e+001
3.434812e+003,2.283480e+001
3.436740e+003,1.610916e+001
3.438669e+003,1.562647e+001
3.440597e+003,1.730262e+001
3.442526e+003,1.867124e+001
3.444454e+003,1.673989e+001
3.446383e+003,7.524951e+000
3.448311e+003,4.502462e+000
3.450240e+003,1.286043e+001
3.452168e+003,1.699610e+001
3.454097e+003,1.726463e+001
3.456025e+003,1.697339e+001
3.457954e+003,1.630112e+001
3.459882e+003,1.482455e+001
3.461811e+003,1.412275e+001
3.463739e+003,1.590024e+001
3.465667e+003,1.636630e+001
3.467596e+003,1.277682e+001
3.469524e+003,1.286984e+001
3.471453e+003,1.604657e+001
3.473381e+003,1.637858e+001
3.475310e+003,1.442208e+001
3.477238e+003,8.725083e+000
3.479167e+003,5.424990e+000
3.481095e+003,1.271498e+001
3.483024e+003,1.594293e+001
3.484952e+003,8.731366e+000
3.486881e+003,5.955644e+000
3.488809e+003,8.299563e+000
3.490738e+003,7.576699e+000
3.492666e+003,5.588190e+000
3.494594e+003,7.660257e+000
3.496523e+003,1.039229e+001
3.498451e+003,1.051873e+001
3.500380e+003,1.198967e+001
3.502308e+003,1.713562e+001
3.504237e+003,1.513756e+001
3.506165e+003,4.664105e+000
3.508094e+003,8.069440e+000
3.510022e+003,1.841201e+001
3.511951e+003,1.874961e+001
3.513879e+003,1.630757e+001
3.515808e+003,1.699185e+001
3.517736e+003,1.693531e+001
3.519665e+003,1.487352e+001
3.521593e+003,1.338238e+001
3.523521e+003,1.270275e+001
3.525450e+003,1.230283e+001
3.527378e+003,1.186737e+001
3.529307e+003,1.021799e+001
3.531235e+003,9.162044e+000
3.533164e+003,1.053817e+001
3.535092e+003,1.170903e+001
3.537021e+003,1.162695e+001
3.538949e+003,1.269273e+001
3.540878e+003,1.463493e+001
3.542806e+003,1.426247e+001
3.544735e+003,1.229194e+001
3.546663e+003,7.978228e+000
3.548592e+003,5.689025e+000
3.550520e+003,8.683027e+000
3.552448e+003,1.190157e+001
3.554377e+003,1.481795e+001
3.556305e+003,1.339042e+001
3.558234e+003,9.190690e+000
3.560162e+003,8.901693e+000
3.562091e+003,1.137798e+001
3.564019e+003,1.817068e+001
3.565948e+003,2.138503e+001
3.567876e+003,1.280741e+001
3.569805e+003,1.111079e+001
3.571733e+003,1.752195e+001
3.573662e+003,2.070271e+001
3.575590e+003,2.109692e+001
3.577519e+003,2.027850e+001
3.579447e+003,1.874497e+001
3.581376e+003,1.573387e+001
3.583304e+003,1.486988e+001
3.585233e+003,1.798193e+001
3.587161e+003,1.820792e+001
3.589090e+003,1.554730e+001
3.591018e+003,1.410487e+001
3.592947e+003,1.405936e+001
3.594875e+003,1.728313e+001
3.596803e+003,1.914273e+001
3.598732e+003,1.578111e+001
3.600660e+003,1.333240e+001
3.602589e+003,1.241940e+001
3.604517e+003,1.269714e+001
3.606446e+003,1.304622e+001
3.608374e+003,8.332337e+000
3.610303e+003,4.661143e+000
3.612231e+003,8.829128e+000
3.614160e+003,1.199552e+001
3.616088e+003,1.196824e+001
3.618017e+003,1.243933e+001
3.619945e+003,1.348980e+001
3.621874e+003,1.311497e+001
3.623802e+003,1.244017e+001
3.625730e+003,1.346333e+001
3.627659e+003,1.352634e+001
3.629587e+003,1.083345e+001
3.631516e+003,9.365444e+000
3.633444e+003,9.705137e+000
3.635373e+003,1.280264e+001
3.637301e+003,1.656102e+001
3.639230e+003,1.621664e+001
3.641158e+003,1.539191e+001
3.643087e+003,1.730569e+001
3.645015e+003,1.688082e+001
3.646944e+003,1.315873e+001
3.648872e+003,1.495209e+001
3.650801e+003,1.940251e+001
3.652729e+003,1.434776e+001
3.654657e+003,8.242488e+000
3.656586e+003,8.673047e+000
3.658514e+003,8.816339e+000
3.660443e+003,7.096818e+000
3.662371e+003,6.009622e+000
3.664300e+003,5.792877e+000
3.666228e+003,6.796570e+000
3.668157e+003,9.174552e+000
3.670085e+003,1.491891e+001
3.672014e+003,1.821513e+001
3.673942e+003,1.721830e+001
3.675871e+003,1.689834e+001
3.677799e+003,1.697690e+001
3.679728e+003,8.517359e+000
3.681656e+003,1.343173e-001
3.683584e+003,4.291614e+000
3.685513e+003,7.624342e+000
3.687441e+003,4.991649e+000
3.689370e+003,3.824490e+000
3.691298e+003,4.941140e+000
3.693227e+003,8.420001e+000
3.695155e+003,1.296371e+001
3.697084e+003,1.884693e+001
3.699012e+003,2.056165e+001
3.700941e+003,1.414588e+001
3.702869e+003,1.336874e+001
3.704798e+003,1.895718e+001
3.706726e+003,1.711843e+001
3.708655e+003,1.215298e+001
3.710583e+003,9.123962e+000
3.712511e+003,7.969334e+000
3.714440e+003,8.994807e+000
3.716368e+003,1.078270e+001
3.718297e+003,1.282551e+001
3.720225e+003,1.009481e+001
3.722154e+003,5.281908e+000
3.724082e+003,3.432506e-001
3.726011e+003,-1.021152e+000
3.727939e+003,3.909879e+000
3.729868e+003,7.262084e+000
3.731796e+003,8.567116e+000
3.733725e+003,1.192038e+001
3.735653e+003,1.501974e+001
3.737582e+003,1.398999e+001
3.739510e+003,1.360467e+001
3.741438e+003,1.637420e+001
3.743367e+003,1.570016e+001
3.745295e+003,1.233594e+001
3.747224e+003,1.768855e+001
3.749152e+003,2.258795e+001
3.751081e+003,1.273117e+001
3.753009e+003,8.242714e+000
3.754938e+003,1.721769e+001
3.756866e+003,2.086012e+001
3.758795e+003,1.868477e+001
3.760723e+003,1.165329e+001
3.762652e+003,6.231441e+000
3.764580e+003,9.254290e+000
3.766509e+003,1.298057e+001
3.768437e+003,1.601299e+001
3.770365e+003,1.446707e+001
3.772294e+003,1.026968e+001
3.774222e+003,1.150376e+001
3.776151e+003,1.026321e+001
3.778079e+003,-4.446967e+000
3.780008e+003,-6.534708e+000
3.781936e+003,7.850447e+000
3.783865e+003,1.186186e+001
3.785793e+003,9.264551e+000
3.787722e+003,6.476297e+000
3.789650e+003,5.802112e+000
3.791579e+003,8.728022e+000
3.793507e+003,1.344835e+001
3.795436e+003,1.936301e+001
3.797364e+003,2.288182e+001
3.799292e+003,2.321556e+001
3.801221e+003,1.636729e+001
3.803149e+003,1.084440e+001
3.805078e+003,9.565735e+000
3.807006e+003,1.141707e+001
3.808935e+003,1.443385e+001
3.810863e+003,7.650187e+000
3.812792e+003,2.977489e+000
3.814720e+003,1.576108e+001
3.816649e+003,2.045293e+001
3.818577e+003,9.064668e+000
3.820506e+003,9.982803e+000
3.822434e+003,1.578495e+001
3.824363e+003,7.506151e+000
3.826291e+003,3.905596e+000
3.828219e+003,1.730724e+001
3.830148e+003,2.205021e+001
3.832076e+003,1.628563e+001
3.834005e+003,1.551794e+001
3.835933e+003,1.733418e+001
3.837862e+003,2.080581e+001
3.839790e+003,2.112720e+001
3.841719e+003,1.692315e+001
3.843647e+003,1.582923e+001
3.845576e+003,1.633802e+001
3.847504e+003,1.060298e+001
3.849433e+003,6.819046e+000
3.851361e+003,1.276965e+001
3.853290e+003,1.613970e+001
3.855218e+003,1.614937e+001
3.857146e+003,2.009838e+001
3.859075e+003,2.141373e+001
3.861003e+003,4.736548e+000
3.862932e+003,-2.147025e+000
3.864860e+003,1.582873e+001
3.866789e+003,1.662991e+001
3.868717e+003,6.345922e+000
3.870646e+003,6.280359e+000
3.872574e+003,9.798360e+000
3.874503e+003,1.404877e+001
3.876431e+003,1.456197e+001
3.878360e+003,1.140036e+001
3.880288e+003,1.451316e+001
3.882217e+003,1.876825e+001
3.884145e+003,1.862047e+001
3.886073e+003,1.433618e+001
3.888002e+003,4.092285e+000
3.889930e+003,5.558227e+000
3.891859e+003,1.446726e+001
3.893787e+003,2.153026e+001
3.895716e+003,2.415708e+001
3.897644e+003,1.974362e+001
3.899573e+003,1.728975e+001
3.901501e+003,1.721811e+001
3.903430e+003,1.308567e+001
3.905358e+003,9.746439e+000
3.907287e+003,1.469788e+001
3.909215e+003,1.376383e+001
3.911144e+003,5.047316e+000
3.913072e+003,1.091060e+001
3.915000e+003,2.165936e+001
3.916929e+003,2.037377e+001
3.918857e+003,1.365871e+001
3.920786e+003,-7.992712e-002
3.922714e+003,1.544751e+000
3.924643e+003,1.278879e+001
3.926571e+003,1.218547e+001
3.928500e+003,1.060779e+001
3.930428e+003,1.616971e+001
3.932357e+003,1.594478e+001
3.934285e+003,9.813073e+000
3.936214e+003,6.309271e+000
3.938142e+003,4.843268e+000
3.940071e+003,5.233570e+000
3.941999e+003,6.815111e+000
3.943927e+003,9.587357e+000
3.945856e+003,1.192964e+001
3.947784e+003,1.512337e+001
3.949713e+003,2.397132e+001
3.951641e+003,2.721402e+001
3.953570e+003,2.155863e+001
3.955498e+003,1.615317e+001
3.957427e+003,1.193337e+001
3.959355e+003,1.065129e+001
3.961284e+003,8.976842e+000
3.963212e+003,3.357165e+000
3.965141e+003,5.728699e+000
3.967069e+003,1.317690e+001
3.968998e+003,8.489364e+000
3.970926e+003,4.694104e+000
3.972854e+003,1.330112e+001
3.974783e+003,1.545711e+001
3.976711e+003,1.110992e+001
3.978640e+003,1.583219e+001
3.980568e+003,2.094615e+001
3.982497e+003,1.706145e+001
3.984425e+003,1.450399e+001
3.986354e+003,1.528327e+001
3.988282e+003,1.464517e+001
3.990211e+003,1.400772e+001
3.992139e+003,1.652062e+001
3.994068e+003,1.599824e+001
3.995996e+003,1.108035e+001
3.997925e+003,9.067971e+000
3.999853e+003,9.139938e+000
4.001781e+003,1.068186e+001
4.003710e+003,1.070509e+001
4.005638e+003,8.313947e+000
4.007567e+003,2.655831e+000
4.009495e+003,-1.581549e+000
4.011424e+003,1.113077e+001
4.013352e+003,1.945294e+001
4.015281e+003,8.698914e+000
4.017209e+003,1.167955e+001
4.019138e+003,2.014423e+001
4.021066e+003,9.218707e+000
4.022995e+003,1.328232e+000
4.024923e+003,7.152495e+000
4.026852e+003,1.133512e+001
4.028780e+003,1.338225e+001
4.030708e+003,1.641123e+001
4.032637e+003,1.865894e+001
4.034565e+003,1.883874e+001
4.036494e+003,2.019133e+001
4.038422e+003,2.197690e+001
4.040351e+003,1.935087e+001
4.042279e+003,1.623120e+001
4.044208e+003,1.446784e+001
4.046136e+003,1.579648e+001
4.048065e+003,1.862500e+001
4.049993e+003,1.535048e+001
4.051922e+003,1.218657e+001
4.053850e+003,1.329645e+001
4.055779e+003,1.377197e+001
4.057707e+003,1.299823e+001
4.059635e+003,1.009791e+001
4.061564e+003,6.521323e+000
4.063492e+003,2.205500e+000
4.065421e+003,2.390420e+000
4.067349e+003,6.968304e+000
4.069278e+003,1.443574e+001
4.071206e+003,2.052632e+001
4.073135e+003,2.262095e+001
4.075063e+003,1.991659e+001
4.076992e+003,1.348438e+001
4.078920e+003,6.596068e+000
4.080849e+003,4.289849e+000
4.082777e+003,1.239904e+001
4.084706e+003,1.445036e+001
4.086634e+003,1.123335e+001
4.088563e+003,9.257108e+000
4.090491e+003,1.181029e+001
4.092419e+003,2.275873e+001
4.094348e+003,2.249111e+001
4.096276e+003,1.388897e+001
4.098205e+003,1.446342e+001
4.100133e+003,1.676254e+001
4.102062e+003,1.795212e+001
4.103990e+003,1.247506e+001
4.105919e+003,4.082236e+000
4.107847e+003,8.033132e+000
4.109776e+003,1.133310e+001
4.111704e+003,4.703020e+000
4.113633e+003,3.921116e+000
4.115561e+003,6.870003e+000
4.117490e+003,6.938962e+000
4.119418e+003,9.369343e+000
4.121347e+003,1.688140e+001
4.123275e+003,1.708816e+001
4.125204e+003,1.359933e+001
4.127132e+003,1.521218e+001
4.129061e+003,1.510285e+001
4.130989e+003,1.133442e+001
4.132917e+003,9.124910e+000
4.134846e+003,9.277494e+000
4.136774e+003,1.446046e+001
4.138703e+003,1.700777e+001
4.140631e+003,1.494162e+001
4.142560e+003,1.516388e+001
4.144488e+003,1.655480e+001
4.146417e+003,1.844600e+001
4.148345e+003,1.909088e+001
4.150273e+003,1.817045e+001
4.152202e+003,1.473963e+001
4.154130e+003,1.201615e+001
4.156059e+003,1.494563e+001
4.157987e+003,1.267205e+001
4.159916e+003,6.409545e+000
4.161844e+003,1.184751e+001
4.163773e+003,1.625681e+001
4.165701e+003,8.571803e+000
4.167630e+003,6.155915e+000
4.169558e+003,8.867323e+000
4.171487e+003,1.554872e+001
4.173415e+003,1.867466e+001
4.175344e+003,1.512474e+001
4.177272e+003,6.270922e+000
4.179201e+003,-8.596676e-001
4.181129e+003,1.106984e+001
4.183058e+003,1.708972e+001
4.184986e+003,1.139414e+001
4.186915e+003,1.136830e+001
4.188843e+003,1.396941e+001
4.190771e+003,1.664212e+001
4.192700e+003,1.145890e+001
4.194628e+003,-6.213808e-001
4.196557e+003,1.571144e+001
4.198485e+003,2.898442e+001
4.200414e+003,1.211306e+001
4.202342e+003,1.684236e+000
4.204271e+003,3.649067e-001
4.206199e+003,5.547939e+000
4.208127e+003,8.984586e+000
4.210056e+003,5.320511e+000
4.211984e+003,9.062464e+000
4.213913e+003,1.568044e+001
4.215841e+003,1.478911e+001
4.217770e+003,1.187592e+001
4.219698e+003,7.978080e+000
4.221627e+003,6.967474e+000
4.223555e+003,9.959276e+000
4.225484e+003,2.290077e+001
4.227412e+003,2.747490e+001
4.229341e+003,2.261298e+001
4.231269e+003,1.827477e+001
4.233198e+003,1.354179e+001
4.235126e+003,5.942175e+000
4.237055e+003,4.388340e+000
4.238983e+003,7.117063e+000
4.240912e+003,8.221281e+000
4.242840e+003,1.274945e+001
4.244769e+003,2.328263e+001
4.246697e+003,2.561257e+001
4.248625e+003,2.272821e+001
4.250554e+003,1.819828e+001
