1.159199e+002,1.244781e+003
1.178484e+002,1.331600e+003
1.197769e+002,1.384553e+003
1.217053e+002,1.401269e+003
1.236338e+002,1.384911e+003
1.255623e+002,1.319708e+003
1.274907e+002,1.230685e+003
1.294192e+002,1.141244e+003
1.313477e+002,1.040748e+003
1.332761e+002,9.523726e+002
1.352046e+002,8.817952e+002
1.371331e+002,8.303727e+002
1.390615e+002,7.940552e+002
1.409900e+002,7.684603e+002
1.429185e+002,7.575047e+002
1.448469e+002,7.753486e+002
1.467754e+002,8.555931e+002
1.487039e+002,9.327405e+002
1.506323e+002,9.817441e+002
1.525608e+002,1.008801e+003
1.544893e+002,1.004066e+003
1.564177e+002,9.672112e+002
1.583462e+002,9.040265e+002
1.602747e+002,8.290942e+002
1.622031e+002,7.332154e+002
1.641316e+002,6.388426e+002
1.660601e+002,5.548610e+002
1.679885e+002,4.741762e+002
1.699170e+002,4.154753e+002
1.718455e+002,3.837896e+002
1.737739e+002,3.795330e+002
1.757024e+002,3.755249e+002
1.776309e+002,3.718732e+002
1.795593e+002,3.680167e+002
1.814878e+002,3.635730e+002
1.834163e+002,3.626288e+002
1.853447e+002,3.569643e+002
1.872732e+002,3.420670e+002
1.892017e+002,3.190206e+002
1.911301e+002,3.001434e+002
1.930586e+002,2.891957e+002
1.949871e+002,2.826513e+002
1.969155e+002,2.767204e+002
1.988440e+002,2.730933e+002
2.007725e+002,2.684273e+002
2.027009e+002,2.600597e+002
2.046294e+002,2.471657e+002
2.065579e+002,2.385723e+002
2.084864e+002,2.383406e+002
2.104148e+002,2.426482e+002
2.123433e+002,2.427101e+002
2.142718e+002,2.328896e+002
2.162002e+002,2.253812e+002
2.181287e+002,2.256910e+002
2.200572e+002,2.375814e+002
2.219856e+002,2.475429e+002
2.239141e+002,2.545351e+002
2.258426e+002,2.586740e+002
2.277710e+002,2.613385e+002
2.296995e+002,2.631643e+002
2.316280e+002,2.629456e+002
2.335564e+002,2.601921e+002
2.354849e+002,2.505907e+002
2.374134e+002,2.445676e+002
2.393418e+002,2.447010e+002
2.412703e+002,2.485300e+002
2.431988e+002,2.505425e+002
2.451272e+002,2.482052e+002
2.470557e+002,2.452718e+002
2.489842e+002,2.433953e+002
2.509126e+002,2.427041e+002
2.528411e+002,2.426452e+002
2.547696e+002,2.441911e+002
2.566980e+002,2.465275e+002
2.586265e+002,2.473269e+002
2.605550e+002,2.458520e+002
2.624834e+002,2.434416e+002
2.644119e+002,2.401554e+002
2.663404e+002,2.353738e+002
2.682688e+002,2.321763e+002
2.701973e+002,2.322012e+002
2.721258e+002,2.345933e+002
2.740542e+002,2.360632e+002
2.759827e+002,2.344829e+002
2.779112e+002,2.333932e+002
2.798396e+002,2.354462e+002
2.817681e+002,2.412602e+002
2.836966e+002,2.457580e+002
2.856250e+002,2.475766e+002
2.875535e+002,2.472525e+002
2.894820e+002,2.464824e+002
2.914104e+002,2.467397e+002
2.933389e+002,2.457621e+002
2.952674e+002,2.417135e+002
2.971958e+002,2.334470e+002
2.991243e+002,2.279155e+002
3.010528e+002,2.276873e+002
3.029813e+002,2.310267e+002
3.049097e+002,2.323610e+002
3.068382e+002,2.297852e+002
3.087667e+002,2.270574e+002
3.106951e+002,2.257212e+002
3.126236e+002,2.259916e+002
3.145521e+002,2.267453e+002
3.164805e+002,2.280944e+002
3.184090e+002,2.298118e+002
3.203375e+002,2.311505e+002
3.222659e+002,2.303976e+002
3.241944e+002,2.320100e+002
3.261229e+002,2.376389e+002
3.280513e+002,2.490742e+002
3.299798e+002,2.603984e+002
3.319083e+002,2.741953e+002
3.338367e+002,2.867045e+002
3.357652e+002,2.932737e+002
3.376937e+002,2.912716e+002
3.396221e+002,2.871626e+002
3.415506e+002,2.833971e+002
3.434791e+002,2.803699e+002
3.454075e+002,2.753436e+002
3.473360e+002,2.649326e+002
3.492645e+002,2.546577e+002
3.511929e+002,2.492018e+002
3.531214e+002,2.512268e+002
3.550499e+002,2.532909e+002
3.569783e+002,2.535594e+002
3.589068e+002,2.520178e+002
3.608353e+002,2.505028e+002
3.627637e+002,2.486287e+002
3.646922e+002,2.471629e+002
3.666207e+002,2.463380e+002
3.685491e+002,2.458912e+002
3.704776e+002,2.469627e+002
3.724061e+002,2.496043e+002
3.743345e+002,2.539833e+002
3.762630e+002,2.601628e+002
3.781915e+002,2.701880e+002
3.801199e+002,2.796172e+002
3.820484e+002,2.870834e+002
3.839769e+002,2.933454e+002
3.859053e+002,2.945634e+002
3.878338e+002,2.860094e+002
3.897623e+002,2.734471e+002
3.916907e+002,2.661199e+002
3.936192e+002,2.658924e+002
3.955477e+002,2.675313e+002
3.974761e+002,2.688184e+002
3.994046e+002,2.693927e+002
4.013331e+002,2.722530e+002
4.032615e+002,2.772751e+002
4.051900e+002,2.846686e+002
4.071185e+002,2.956278e+002
4.090469e+002,3.128841e+002
4.109754e+002,3.260974e+002
4.129039e+002,3.325436e+002
4.148323e+002,3.329892e+002
4.167608e+002,3.320581e+002
4.186893e+002,3.289664e+002
4.206177e+002,3.251265e+002
4.225462e+002,3.211218e+002
4.244747e+002,3.169824e+002
4.264032e+002,3.119543e+002
4.283316e+002,3.038243e+002
4.302601e+002,2.951843e+002
4.321886e+002,2.905713e+002
4.341170e+002,2.900214e+002
4.360455e+002,2.925784e+002
4.379740e+002,2.988328e+002
4.399024e+002,3.084395e+002
4.418309e+002,3.189590e+002
4.437594e+002,3.330738e+002
4.456878e+002,3.461241e+002
4.476163e+002,3.549380e+002
4.495448e+002,3.600325e+002
4.514732e+002,3.602411e+002
4.534017e+002,3.495077e+002
4.553302e+002,3.335034e+002
4.572586e+002,3.249930e+002
4.591871e+002,3.323269e+002
4.611156e+002,3.395251e+002
4.630440e+002,3.412257e+002
4.649725e+002,3.376173e+002
4.669010e+002,3.352120e+002
4.688294e+002,3.347632e+002
4.707579e+002,3.359201e+002
4.726864e+002,3.383846e+002
4.746148e+002,3.418604e+002
4.765433e+002,3.470558e+002
4.784718e+002,3.554857e+002
4.804002e+002,3.656517e+002
4.823287e+002,3.737357e+002
4.842572e+002,3.786117e+002
4.861856e+002,3.825379e+002
4.881141e+002,3.868962e+002
4.900426e+002,3.925573e+002
4.919710e+002,3.955612e+002
4.938995e+002,3.914902e+002
4.958280e+002,3.876703e+002
4.977564e+002,3.921916e+002
4.996849e+002,4.100244e+002
5.016134e+002,4.214980e+002
5.035418e+002,4.183619e+002
5.054703e+002,4.044648e+002
5.073988e+002,3.958381e+002
5.093272e+002,3.937441e+002
5.112557e+002,3.946095e+002
5.131842e+002,3.985506e+002
5.151127e+002,4.052920e+002
5.170411e+002,4.103024e+002
5.189696e+002,4.142617e+002
5.208981e+002,4.154628e+002
5.228265e+002,4.116095e+002
5.247550e+002,3.996583e+002
5.266835e+002,3.891347e+002
5.286119e+002,3.815935e+002
5.305404e+002,3.764567e+002
5.324689e+002,3.725486e+002
5.343973e+002,3.688463e+002
5.363258e+002,3.677726e+002
5.382543e+002,3.718452e+002
5.401827e+002,3.815140e+002
5.421112e+002,3.861530e+002
5.440397e+002,3.800907e+002
5.459681e+002,3.730495e+002
5.478966e+002,3.712795e+002
5.498251e+002,3.770203e+002
5.517535e+002,3.807745e+002
5.536820e+002,3.781261e+002
5.556105e+002,3.741750e+002
5.575389e+002,3.777787e+002
5.594674e+002,3.918100e+002
5.613959e+002,4.065892e+002
5.633243e+002,4.214518e+002
5.652528e+002,4.356466e+002
5.671813e+002,4.441264e+002
5.691097e+002,4.403793e+002
5.710382e+002,4.361129e+002
5.729667e+002,4.345928e+002
5.748951e+002,4.356887e+002
5.768236e+002,4.415640e+002
5.787521e+002,4.540992e+002
5.806805e+002,4.706399e+002
5.826090e+002,4.916739e+002
5.845375e+002,5.307188e+002
5.864659e+002,5.457390e+002
5.883944e+002,5.195181e+002
5.903229e+002,4.697988e+002
5.922513e+002,4.308393e+002
5.941798e+002,4.046772e+002
5.961083e+002,3.846938e+002
5.980367e+002,3.679567e+002
5.999652e+002,3.545038e+002
6.018937e+002,3.490348e+002
6.038221e+002,3.540881e+002
6.057506e+002,3.642613e+002
6.076791e+002,3.786738e+002
6.096075e+002,3.971781e+002
6.115360e+002,4.167196e+002
6.134645e+002,4.419705e+002
6.153929e+002,4.639394e+002
6.173214e+002,4.769438e+002
6.192499e+002,4.816640e+002
6.211783e+002,4.747547e+002
6.231068e+002,4.473387e+002
6.250353e+002,4.117853e+002
6.269637e+002,3.871003e+002
6.288922e+002,3.754205e+002
6.308207e+002,3.679956e+002
6.327491e+002,3.633400e+002
6.346776e+002,3.607336e+002
6.366061e+002,3.576386e+002
6.385345e+002,3.485425e+002
6.404630e+002,3.439952e+002
6.423915e+002,3.520967e+002
6.443199e+002,3.706351e+002
6.462484e+002,3.796662e+002
6.481769e+002,3.694973e+002
6.501053e+002,3.573518e+002
6.520338e+002,3.527944e+002
6.539623e+002,3.590870e+002
6.558907e+002,3.643707e+002
6.578192e+002,3.672032e+002
6.597477e+002,3.697646e+002
6.616761e+002,3.746865e+002
6.636046e+002,3.827124e+002
6.655331e+002,3.887472e+002
6.674615e+002,3.891578e+002
6.693900e+002,3.875370e+002
6.713185e+002,3.885220e+002
6.732469e+002,3.955746e+002
6.751754e+002,4.015711e+002
6.771039e+002,4.047337e+002
6.790323e+002,4.064212e+002
6.809608e+002,4.098568e+002
6.828893e+002,4.142785e+002
6.848177e+002,4.217502e+002
6.867462e+002,4.338900e+002
6.886747e+002,4.503219e+002
6.906031e+002,4.653752e+002
6.925316e+002,4.839308e+002
6.944601e+002,4.966489e+002
6.963885e+002,4.983015e+002
6.983170e+002,4.892789e+002
7.002455e+002,4.768113e+002
7.021740e+002,4.592079e+002
7.041024e+002,4.404158e+002
7.060309e+002,4.216206e+002
7.079594e+002,4.005857e+002
7.098878e+002,3.871154e+002
7.118163e+002,3.827980e+002
7.137448e+002,3.842548e+002
7.156732e+002,3.899743e+002
7.176017e+002,4.003875e+002
7.195302e+002,4.107148e+002
7.214586e+002,4.126678e+002
7.233871e+002,4.183034e+002
7.253156e+002,4.416697e+002
7.272440e+002,5.003021e+002
7.291725e+002,5.475287e+002
7.311010e+002,5.712617e+002
7.330294e+002,5.828358e+002
7.349579e+002,5.979756e+002
7.368864e+002,6.056658e+002
7.388149e+002,6.404409e+002
7.407433e+002,7.406917e+002
7.426718e+002,8.744684e+002
7.446003e+002,9.716343e+002
7.465287e+002,1.038415e+003
7.484572e+002,1.054728e+003
7.503857e+002,9.903134e+002
7.523141e+002,8.649269e+002
7.542426e+002,7.655006e+002
7.561711e+002,6.990438e+002
7.580995e+002,6.466025e+002
7.600280e+002,6.006335e+002
7.619565e+002,5.614180e+002
7.638849e+002,5.343302e+002
7.658134e+002,5.289385e+002
7.677419e+002,5.269565e+002
7.696703e+002,5.256131e+002
7.715988e+002,5.243777e+002
7.735273e+002,5.155981e+002
7.754557e+002,4.922473e+002
7.773842e+002,4.690512e+002
7.793127e+002,4.533565e+002
7.812411e+002,4.447357e+002
7.831696e+002,4.377186e+002
7.850981e+002,4.288533e+002
7.870266e+002,4.244185e+002
7.889550e+002,4.293378e+002
7.908835e+002,4.459900e+002
7.928120e+002,4.579978e+002
7.947404e+002,4.666965e+002
7.966689e+002,4.696073e+002
7.985974e+002,4.624148e+002
8.005258e+002,4.448743e+002
8.024543e+002,4.321901e+002
8.043828e+002,4.294461e+002
8.063112e+002,4.299018e+002
8.082397e+002,4.308430e+002
8.101682e+002,4.331161e+002
8.120966e+002,4.320958e+002
8.140251e+002,4.209130e+002
8.159536e+002,4.118628e+002
8.178820e+002,4.137621e+002
8.198105e+002,4.265033e+002
8.217390e+002,4.430477e+002
8.236674e+002,4.651859e+002
8.255959e+002,4.890259e+002
8.275244e+002,5.137531e+002
8.294528e+002,5.436197e+002
8.313813e+002,5.625028e+002
8.333098e+002,5.621690e+002
8.352382e+002,5.569750e+002
8.371667e+002,5.594219e+002
8.390952e+002,5.698049e+002
8.410236e+002,5.746495e+002
8.429521e+002,5.611031e+002
8.448806e+002,5.491523e+002
8.468090e+002,5.528286e+002
8.487375e+002,5.786904e+002
8.506660e+002,6.040364e+002
8.525944e+002,6.225007e+002
8.545229e+002,6.445128e+002
8.564514e+002,6.798507e+002
8.583798e+002,7.285815e+002
8.603083e+002,7.804700e+002
8.622368e+002,8.564351e+002
8.641652e+002,9.139263e+002
8.660937e+002,9.261691e+002
8.680222e+002,8.877045e+002
8.699506e+002,8.266564e+002
8.718791e+002,7.165911e+002
8.738076e+002,6.092473e+002
8.757360e+002,5.402189e+002
8.776645e+002,5.139136e+002
8.795930e+002,4.924395e+002
8.815214e+002,4.751704e+002
8.834499e+002,4.613143e+002
8.853784e+002,4.494050e+002
8.873068e+002,4.392699e+002
8.892353e+002,4.352614e+002
8.911638e+002,4.422193e+002
8.930922e+002,4.515078e+002
8.950207e+002,4.612458e+002
8.969492e+002,4.718988e+002
8.988776e+002,4.740923e+002
9.008061e+002,4.573613e+002
9.027346e+002,4.421640e+002
9.046630e+002,4.402987e+002
9.065915e+002,4.490512e+002
9.085200e+002,4.571200e+002
9.104484e+002,4.636464e+002
9.123769e+002,4.695368e+002
9.143054e+002,4.760915e+002
9.162338e+002,4.833380e+002
9.181623e+002,4.874493e+002
9.200908e+002,4.864231e+002
9.220192e+002,4.848241e+002
9.239477e+002,4.843630e+002
9.258762e+002,4.841160e+002
9.278046e+002,4.810041e+002
9.297331e+002,4.716393e+002
9.316616e+002,4.647079e+002
9.335900e+002,4.637210e+002
9.355185e+002,4.673872e+002
9.374470e+002,4.727211e+002
9.393754e+002,4.840758e+002
9.413039e+002,4.913847e+002
9.432324e+002,4.900301e+002
9.451608e+002,4.845565e+002
9.470893e+002,4.842715e+002
9.490178e+002,4.907766e+002
9.509462e+002,4.975248e+002
9.528747e+002,5.055963e+002
9.548032e+002,5.117923e+002
9.567316e+002,5.116797e+002
9.586601e+002,5.026785e+002
9.605886e+002,4.961137e+002
9.625170e+002,4.943903e+002
9.644455e+002,4.954121e+002
9.663740e+002,4.971019e+002
9.683024e+002,4.980125e+002
9.702309e+002,5.038210e+002
9.721594e+002,5.205227e+002
9.740878e+002,5.374272e+002
9.760163e+002,5.460348e+002
9.779448e+002,5.470991e+002
9.798733e+002,5.486522e+002
9.818018e+002,5.496024e+002
9.837302e+002,5.540089e+002
9.856587e+002,5.584774e+002
9.875872e+002,5.624860e+002
9.895156e+002,5.921491e+002
9.914441e+002,6.449304e+002
9.933726e+002,7.243663e+002
9.953010e+002,8.695061e+002
9.972295e+002,1.047080e+003
9.991580e+002,1.138794e+003
1.001086e+003,1.131991e+003
1.003015e+003,1.071868e+003
1.004943e+003,9.278624e+002
1.006872e+003,7.523483e+002
1.008800e+003,6.279080e+002
1.010729e+003,5.678253e+002
1.012657e+003,5.300508e+002
1.014586e+003,5.150031e+002
1.016514e+003,5.114046e+002
1.018443e+003,5.074154e+002
1.020371e+003,5.013052e+002
1.022300e+003,4.994858e+002
1.024228e+003,5.076423e+002
1.026156e+003,5.160153e+002
1.028085e+003,5.162921e+002
1.030013e+003,5.095208e+002
1.031942e+003,5.058952e+002
1.033870e+003,5.103687e+002
1.035799e+003,5.135622e+002
1.037727e+003,5.098589e+002
1.039656e+003,4.999327e+002
1.041584e+003,4.934977e+002
1.043513e+003,4.887666e+002
1.045441e+003,4.896244e+002
1.047370e+003,4.994030e+002
1.049298e+003,5.152059e+002
1.051227e+003,5.304716e+002
1.053155e+003,5.455609e+002
1.055083e+003,5.597114e+002
1.057012e+003,5.745529e+002
1.058940e+003,5.872501e+002
1.060869e+003,5.944172e+002
1.062797e+003,5.949778e+002
1.064726e+003,5.961177e+002
1.066654e+003,6.026783e+002
1.068583e+003,6.064191e+002
1.070511e+003,6.024549e+002
1.072440e+003,5.901930e+002
1.074368e+003,5.750021e+002
1.076297e+003,5.513874e+002
1.078225e+003,5.317482e+002
1.080154e+003,5.185482e+002
1.082082e+003,5.133992e+002
1.084010e+003,5.196329e+002
1.085939e+003,5.416649e+002
1.087867e+003,5.641648e+002
1.089796e+003,5.843740e+002
1.091724e+003,6.011821e+002
1.093653e+003,6.119847e+002
1.095581e+003,6.142873e+002
1.097510e+003,6.173085e+002
1.099438e+003,6.186631e+002
1.101367e+003,6.235176e+002
1.103295e+003,6.375485e+002
1.105224e+003,6.620743e+002
1.107152e+003,6.809016e+002
1.109081e+003,7.020667e+002
1.111009e+003,7.100316e+002
1.112938e+003,6.924020e+002
1.114866e+003,6.579598e+002
1.116794e+003,6.257794e+002
1.118723e+003,5.941904e+002
1.120651e+003,5.700611e+002
1.122580e+003,5.587494e+002
1.124508e+003,5.539847e+002
1.126437e+003,5.498185e+002
1.128365e+003,5.451409e+002
1.130294e+003,5.451148e+002
1.132222e+003,5.514092e+002
1.134151e+003,5.610374e+002
1.136079e+003,5.744444e+002
1.138008e+003,5.912015e+002
1.139936e+003,6.034179e+002
1.141865e+003,6.070374e+002
1.143793e+003,6.118215e+002
1.145721e+003,6.238447e+002
1.147650e+003,6.373954e+002
1.149578e+003,6.446741e+002
1.151507e+003,6.455076e+002
1.153435e+003,6.397694e+002
1.155364e+003,6.226751e+002
1.157292e+003,6.031820e+002
1.159221e+003,5.869139e+002
1.161149e+003,5.745436e+002
1.163078e+003,5.624755e+002
1.165006e+003,5.471509e+002
1.166935e+003,5.365125e+002
1.168863e+003,5.365942e+002
1.170792e+003,5.430792e+002
1.172720e+003,5.432678e+002
1.174648e+003,5.336512e+002
1.176577e+003,5.272838e+002
1.178505e+003,5.274664e+002
1.180434e+003,5.313301e+002
1.182362e+003,5.359156e+002
1.184291e+003,5.412175e+002
1.186219e+003,5.505998e+002
1.188148e+003,5.682849e+002
1.190076e+003,5.848723e+002
1.192005e+003,5.963149e+002
1.193933e+003,6.038326e+002
1.195862e+003,6.113222e+002
1.197790e+003,6.206010e+002
1.199719e+003,6.269254e+002
1.201647e+003,6.301354e+002
1.203575e+003,6.299242e+002
1.205504e+003,6.233082e+002
1.207432e+003,6.083542e+002
1.209361e+003,6.032128e+002
1.211289e+003,6.073171e+002
1.213218e+003,6.221931e+002
1.215146e+003,6.502811e+002
1.217075e+003,6.897623e+002
1.219003e+003,7.437437e+002
1.220932e+003,8.248314e+002
1.222860e+003,8.745156e+002
1.224789e+003,8.634250e+002
1.226717e+003,8.247036e+002
1.228646e+003,7.715942e+002
1.230574e+003,6.997787e+002
1.232502e+003,6.551663e+002
1.234431e+003,6.561816e+002
1.236359e+003,6.645247e+002
1.238288e+003,6.763184e+002
1.240216e+003,6.875692e+002
1.242145e+003,6.901031e+002
1.244073e+003,6.832231e+002
1.246002e+003,6.704075e+002
1.247930e+003,6.434929e+002
1.249859e+003,6.185342e+002
1.251787e+003,6.080636e+002
1.253716e+003,6.091476e+002
1.255644e+003,6.091418e+002
1.257573e+003,6.063529e+002
1.259501e+003,6.042991e+002
1.261429e+003,6.015134e+002
1.263358e+003,6.015508e+002
1.265286e+003,6.108978e+002
1.267215e+003,6.319999e+002
1.269143e+003,6.455097e+002
1.271072e+003,6.462066e+002
1.273000e+003,6.414539e+002
1.274929e+003,6.304391e+002
1.276857e+003,6.158954e+002
1.278786e+003,6.068939e+002
1.280714e+003,6.071319e+002
1.282643e+003,6.081080e+002
1.284571e+003,6.111132e+002
1.286500e+003,6.138925e+002
1.288428e+003,6.126275e+002
1.290356e+003,6.081970e+002
1.292285e+003,6.109115e+002
1.294213e+003,6.215576e+002
1.296142e+003,6.381250e+002
1.298070e+003,6.616978e+002
1.299999e+003,6.898472e+002
1.301927e+003,7.243430e+002
1.303856e+003,7.663907e+002
1.305784e+003,7.894872e+002
1.307713e+003,7.747026e+002
1.309641e+003,7.601658e+002
1.311570e+003,7.594684e+002
1.313498e+003,7.714116e+002
1.315427e+003,7.936463e+002
1.317355e+003,8.323061e+002
1.319283e+003,8.684052e+002
1.321212e+003,8.863446e+002
1.323140e+003,9.144201e+002
1.325069e+003,9.830524e+002
1.326997e+003,1.085823e+003
1.328926e+003,1.152420e+003
1.330854e+003,1.186409e+003
1.332783e+003,1.183278e+003
1.334711e+003,1.103664e+003
1.336640e+003,1.013328e+003
1.338568e+003,9.684366e+002
1.340497e+003,9.676558e+002
1.342425e+003,1.015498e+003
1.344354e+003,1.145038e+003
1.346282e+003,1.262103e+003
1.348210e+003,1.362856e+003
1.350139e+003,1.410705e+003
1.352068e+003,1.344039e+003
1.353996e+003,1.154490e+003
1.355924e+003,9.834974e+002
1.357853e+003,8.425726e+002
1.359781e+003,7.357564e+002
1.361710e+003,6.714260e+002
1.363638e+003,6.387048e+002
1.365567e+003,6.174235e+002
1.367495e+003,6.100636e+002
1.369424e+003,6.079383e+002
1.371352e+003,6.155220e+002
1.373281e+003,6.228113e+002
1.375209e+003,6.236783e+002
1.377138e+003,6.207537e+002
1.379066e+003,6.227922e+002
1.380995e+003,6.349412e+002
1.382923e+003,6.414974e+002
1.384851e+003,6.365938e+002
1.386780e+003,6.299113e+002
1.388708e+003,6.257409e+002
1.390637e+003,6.245013e+002
1.392565e+003,6.282573e+002
1.394494e+003,6.393220e+002
1.396422e+003,6.483054e+002
1.398351e+003,6.482112e+002
1.400279e+003,6.498362e+002
1.402208e+003,6.600057e+002
1.404136e+003,6.778548e+002
1.406065e+003,7.008904e+002
1.407993e+003,7.277036e+002
1.409922e+003,7.633176e+002
1.411850e+003,8.279086e+002
1.413778e+003,8.847560e+002
1.415707e+003,9.105104e+002
1.417635e+003,9.063742e+002
1.419564e+003,8.800634e+002
1.421492e+003,8.158285e+002
1.423421e+003,7.609908e+002
1.425349e+003,7.247571e+002
1.427278e+003,6.999232e+002
1.429206e+003,6.796248e+002
1.431135e+003,6.637866e+002
1.433063e+003,6.624534e+002
1.434992e+003,6.871996e+002
1.436920e+003,7.103359e+002
1.438849e+003,7.313105e+002
1.440777e+003,7.475660e+002
1.442705e+003,7.556772e+002
1.444634e+003,7.562687e+002
1.446562e+003,7.591680e+002
1.448491e+003,7.738807e+002
1.450419e+003,7.750433e+002
1.452348e+003,7.466459e+002
1.454276e+003,7.123724e+002
1.456205e+003,6.916165e+002
1.458133e+003,6.823165e+002
1.460062e+003,6.721862e+002
1.461990e+003,6.580070e+002
1.463919e+003,6.507643e+002
1.465847e+003,6.531925e+002
1.467776e+003,6.641354e+002
1.469704e+003,6.832193e+002
1.471632e+003,7.101299e+002
1.473561e+003,7.490453e+002
1.475489e+003,8.094475e+002
1.477418e+003,8.486173e+002
1.479346e+003,8.510421e+002
1.481275e+003,8.315175e+002
1.483203e+003,7.898107e+002
1.485132e+003,7.335888e+002
1.487060e+003,6.922350e+002
1.488989e+003,6.672241e+002
1.490917e+003,6.544366e+002
1.492846e+003,6.621906e+002
1.494774e+003,6.730688e+002
1.496703e+003,6.803961e+002
1.498631e+003,6.846124e+002
1.500559e+003,6.861406e+002
1.502488e+003,6.837045e+002
1.504416e+003,6.823423e+002
1.506345e+003,6.817560e+002
1.508273e+003,6.826698e+002
1.510202e+003,6.874167e+002
1.512130e+003,6.930716e+002
1.514059e+003,6.933177e+002
1.515987e+003,6.844072e+002
1.517916e+003,6.825718e+002
1.519844e+003,6.929778e+002
1.521773e+003,7.038679e+002
1.523701e+003,7.118973e+002
1.525630e+003,7.183425e+002
1.527558e+003,7.246947e+002
1.529486e+003,7.307490e+002
1.531415e+003,7.355628e+002
1.533343e+003,7.289160e+002
1.535272e+003,7.342408e+002
1.537200e+003,7.567844e+002
1.539129e+003,7.926424e+002
1.541057e+003,8.401553e+002
1.542986e+003,8.992413e+002
1.544914e+003,9.698549e+002
1.546843e+003,1.073089e+003
1.548771e+003,1.135581e+003
1.550700e+003,1.125708e+003
1.552628e+003,1.087497e+003
1.554557e+003,1.027972e+003
1.556485e+003,9.632841e+002
1.558413e+003,9.323151e+002
1.560342e+003,9.351453e+002
1.562270e+003,9.745153e+002
1.564199e+003,1.087754e+003
1.566127e+003,1.184524e+003
1.568056e+003,1.228057e+003
1.569984e+003,1.225243e+003
1.571913e+003,1.178491e+003
1.573841e+003,1.090027e+003
1.575770e+003,1.003356e+003
1.577698e+003,9.156791e+002
1.579627e+003,8.480961e+002
1.581555e+003,8.167600e+002
1.583484e+003,8.015981e+002
1.585412e+003,7.885046e+002
1.587340e+003,7.774506e+002
1.589269e+003,7.681293e+002
1.591197e+003,7.600903e+002
1.593126e+003,7.555655e+002
1.595054e+003,7.549822e+002
1.596983e+003,7.581277e+002
1.598911e+003,7.622534e+002
1.600840e+003,7.705261e+002
1.602768e+003,7.933359e+002
1.604697e+003,8.324917e+002
1.606625e+003,8.589399e+002
1.608554e+003,8.703239e+002
1.610482e+003,8.669399e+002
1.612411e+003,8.398488e+002
1.614339e+003,8.064131e+002
1.616267e+003,7.814890e+002
1.618196e+003,7.643040e+002
1.620124e+003,7.459960e+002
1.622053e+003,7.236667e+002
1.623981e+003,7.085270e+002
1.625910e+003,7.066909e+002
1.627838e+003,7.078073e+002
1.629767e+003,7.081889e+002
1.631695e+003,7.074065e+002
1.633624e+003,7.046759e+002
1.635552e+003,6.996268e+002
1.637481e+003,6.941007e+002
1.639409e+003,6.858215e+002
1.641338e+003,6.815411e+002
1.643266e+003,6.862847e+002
1.645194e+003,6.929094e+002
1.647123e+003,6.953013e+002
1.649051e+003,6.943906e+002
1.650980e+003,6.951068e+002
1.652908e+003,6.962131e+002
1.654837e+003,7.015579e+002
1.656765e+003,7.201094e+002
1.658694e+003,7.319604e+002
1.660622e+003,7.252379e+002
1.662551e+003,7.115455e+002
1.664479e+003,7.063540e+002
1.666408e+003,7.106096e+002
1.668336e+003,7.103593e+002
1.670265e+003,7.025217e+002
1.672193e+003,6.973741e+002
1.674121e+003,6.969617e+002
1.676050e+003,6.987854e+002
1.677978e+003,7.013513e+002
1.679907e+003,7.047704e+002
1.681835e+003,7.095165e+002
1.683764e+003,7.153283e+002
1.685692e+003,7.217962e+002
1.687621e+003,7.319091e+002
1.689549e+003,7.374899e+002
1.691478e+003,7.349900e+002
1.693406e+003,7.300285e+002
1.695335e+003,7.270710e+002
1.697263e+003,7.253285e+002
1.699192e+003,7.207054e+002
1.701120e+003,7.111407e+002
1.703048e+003,7.063925e+002
1.704977e+003,7.083651e+002
1.706905e+003,7.125520e+002
1.708834e+003,7.234333e+002
1.710762e+003,7.305375e+002
1.712691e+003,7.192109e+002
1.714619e+003,6.950120e+002
1.716548e+003,6.896686e+002
1.718476e+003,7.124859e+002
1.720405e+003,7.245419e+002
1.722333e+003,7.137776e+002
1.724262e+003,7.041693e+002
1.726190e+003,7.030784e+002
1.728119e+003,7.057802e+002
1.730047e+003,7.081703e+002
1.731975e+003,7.101641e+002
1.733904e+003,7.129489e+002
1.735832e+003,7.183166e+002
1.737761e+003,7.180380e+002
1.739689e+003,7.034090e+002
1.741618e+003,6.942313e+002
1.743546e+003,6.996169e+002
1.745475e+003,7.112890e+002
1.747403e+003,7.226783e+002
1.749332e+003,7.333199e+002
1.751260e+003,7.415029e+002
1.753189e+003,7.486101e+002
1.755117e+003,7.466094e+002
1.757046e+003,7.265676e+002
1.758974e+003,7.104083e+002
1.760902e+003,7.099314e+002
1.762831e+003,7.140631e+002
1.764759e+003,7.102646e+002
1.766688e+003,7.020366e+002
1.768616e+003,7.077896e+002
1.770545e+003,7.313373e+002
1.772473e+003,7.441320e+002
1.774402e+003,7.344763e+002
1.776330e+003,7.258505e+002
1.778259e+003,7.294587e+002
1.780187e+003,7.357053e+002
1.782116e+003,7.363859e+002
1.784044e+003,7.340179e+002
1.785973e+003,7.368413e+002
1.787901e+003,7.458242e+002
1.789829e+003,7.485782e+002
1.791758e+003,7.403568e+002
1.793686e+003,7.336954e+002
1.795615e+003,7.335056e+002
1.797543e+003,7.357785e+002
1.799472e+003,7.397245e+002
1.801400e+003,7.432701e+002
1.803329e+003,7.403478e+002
1.805257e+003,7.312520e+002
1.807186e+003,7.309743e+002
1.809114e+003,7.460240e+002
1.811043e+003,7.542529e+002
1.812971e+003,7.419565e+002
1.814900e+003,7.302538e+002
1.816828e+003,7.311234e+002
1.818756e+003,7.394934e+002
1.820685e+003,7.509664e+002
1.822613e+003,7.645301e+002
1.824542e+003,7.715278e+002
1.826470e+003,7.707313e+002
1.828399e+003,7.666881e+002
1.830327e+003,7.584503e+002
1.832256e+003,7.491724e+002
1.834184e+003,7.353939e+002
1.836113e+003,7.251219e+002
1.838041e+003,7.305485e+002
1.839970e+003,7.461918e+002
1.841898e+003,7.496448e+002
1.843827e+003,7.340616e+002
1.845755e+003,7.327241e+002
1.847684e+003,7.602720e+002
1.849612e+003,7.802823e+002
1.851541e+003,7.808458e+002
1.853469e+003,7.770625e+002
1.855397e+003,7.762743e+002
1.857326e+003,7.775706e+002
1.859254e+003,7.805385e+002
1.861183e+003,7.851812e+002
1.863111e+003,7.866609e+002
1.865040e+003,7.845255e+002
1.866968e+003,7.809094e+002
1.868897e+003,7.735178e+002
1.870825e+003,7.685555e+002
1.872754e+003,7.703789e+002
1.874682e+003,7.732611e+002
1.876611e+003,7.708145e+002
1.878539e+003,7.658905e+002
1.880468e+003,7.679139e+002
1.882396e+003,7.774605e+002
1.884324e+003,7.829851e+002
1.886253e+003,7.824774e+002
1.888181e+003,7.811384e+002
1.890110e+003,7.795668e+002
1.892038e+003,7.780139e+002
1.893967e+003,7.745930e+002
1.895895e+003,7.726491e+002
1.897824e+003,7.775350e+002
1.899752e+003,7.866516e+002
1.901681e+003,7.915012e+002
1.903609e+003,7.918200e+002
1.905538e+003,7.920873e+002
1.907466e+003,7.932828e+002
1.909395e+003,7.940356e+002
1.911323e+003,7.919488e+002
1.913251e+003,7.917614e+002
1.915180e+003,7.986473e+002
1.917108e+003,8.068881e+002
1.919037e+003,8.071169e+002
1.920965e+003,8.012677e+002
1.922894e+003,8.029139e+002
1.924822e+003,8.154770e+002
1.926751e+003,8.224537e+002
1.928679e+003,8.192126e+002
1.930608e+003,8.168246e+002
1.932536e+003,8.176974e+002
1.934465e+003,8.196635e+002
1.936393e+003,8.228461e+002
1.938322e+003,8.251683e+002
1.940250e+003,8.207410e+002
1.942178e+003,8.115911e+002
1.944107e+003,8.153670e+002
1.946035e+003,8.372988e+002
1.947964e+003,8.503617e+002
1.949892e+003,8.502702e+002
1.951821e+003,8.476821e+002
1.953749e+003,8.408673e+002
1.955678e+003,8.378547e+002
1.957606e+003,8.477740e+002
1.959535e+003,8.591534e+002
1.961463e+003,8.571346e+002
1.963392e+003,8.459495e+002
1.965320e+003,8.395659e+002
1.967249e+003,8.382954e+002
1.969177e+003,8.365511e+002
1.971105e+003,8.332475e+002
1.973034e+003,8.316479e+002
1.974962e+003,8.339826e+002
1.976891e+003,8.368076e+002
1.978819e+003,8.409440e+002
1.980748e+003,8.428618e+002
1.982676e+003,8.328701e+002
1.984605e+003,8.195569e+002
1.986533e+003,8.279193e+002
1.988462e+003,8.597825e+002
1.990390e+003,8.774459e+002
1.992319e+003,8.716032e+002
1.994247e+003,8.680590e+002
1.996176e+003,8.725237e+002
1.998104e+003,8.721002e+002
2.000032e+003,8.544271e+002
2.001961e+003,8.410069e+002
2.003889e+003,8.511534e+002
2.005818e+003,8.702777e+002
2.007746e+003,8.752405e+002
2.009675e+003,8.689054e+002
2.011603e+003,8.724474e+002
2.013532e+003,8.872673e+002
2.015460e+003,8.951711e+002
2.017389e+003,8.932725e+002
2.019317e+003,8.890763e+002
2.021246e+003,8.833926e+002
2.023174e+003,8.781854e+002
2.025103e+003,8.711285e+002
2.027031e+003,8.679417e+002
2.028959e+003,8.777144e+002
2.030888e+003,8.926669e+002
2.032816e+003,8.972934e+002
2.034745e+003,8.921907e+002
2.036673e+003,8.884129e+002
2.038602e+003,8.864962e+002
2.040530e+003,8.848933e+002
2.042459e+003,8.828589e+002
2.044387e+003,8.826163e+002
2.046316e+003,8.882018e+002
2.048244e+003,8.909320e+002
2.050173e+003,8.832303e+002
2.052101e+003,8.740020e+002
2.054030e+003,8.692229e+002
2.055958e+003,8.701298e+002
2.057886e+003,8.837939e+002
2.059815e+003,9.081029e+002
2.061743e+003,9.192448e+002
2.063672e+003,9.144832e+002
2.065600e+003,9.116236e+002
2.067529e+003,9.136879e+002
2.069457e+003,9.162369e+002
2.071386e+003,9.205542e+002
2.073314e+003,9.214448e+002
2.075243e+003,9.123534e+002
2.077171e+003,9.029944e+002
2.079100e+003,9.029509e+002
2.081028e+003,9.086166e+002
2.082957e+003,9.130798e+002
2.084885e+003,9.164311e+002
2.086813e+003,9.205046e+002
2.088742e+003,9.255616e+002
2.090670e+003,9.296975e+002
2.092599e+003,9.347778e+002
2.094527e+003,9.343628e+002
2.096456e+003,9.215264e+002
2.098384e+003,9.123081e+002
2.100313e+003,9.183782e+002
2.102241e+003,9.238806e+002
2.104170e+003,9.147216e+002
2.106098e+003,9.018371e+002
2.108027e+003,8.995004e+002
2.109955e+003,9.048668e+002
2.111884e+003,9.108372e+002
2.113812e+003,9.171834e+002
2.115740e+003,9.171906e+002
2.117669e+003,9.064540e+002
2.119597e+003,9.028345e+002
2.121526e+003,9.093551e+002
2.123454e+003,9.218694e+002
2.125383e+003,9.523143e+002
2.127311e+003,9.719484e+002
2.129240e+003,9.555416e+002
2.131168e+003,9.325833e+002
2.133097e+003,9.306796e+002
2.135025e+003,9.396379e+002
2.136954e+003,9.406464e+002
2.138882e+003,9.360602e+002
2.140811e+003,9.391749e+002
2.142739e+003,9.504400e+002
2.144667e+003,9.529830e+002
2.146596e+003,9.431895e+002
2.148524e+003,9.354483e+002
2.150453e+003,9.330274e+002
2.152381e+003,9.314814e+002
2.154310e+003,9.295515e+002
2.156238e+003,9.277260e+002
2.158167e+003,9.236714e+002
2.160095e+003,9.225490e+002
2.162024e+003,9.313824e+002
2.163952e+003,9.453079e+002
2.165881e+003,9.578342e+002
2.167809e+003,9.679817e+002
2.169738e+003,9.682589e+002
2.171666e+003,9.581949e+002
2.173594e+003,9.500028e+002
2.175523e+003,9.434350e+002
2.177451e+003,9.435551e+002
2.179380e+003,9.553885e+002
2.181308e+003,9.624574e+002
2.183237e+003,9.585702e+002
2.185165e+003,9.521314e+002
2.187094e+003,9.422748e+002
2.189022e+003,9.368993e+002
2.190951e+003,9.460640e+002
2.192879e+003,9.593597e+002
2.194808e+003,9.633187e+002
2.196736e+003,9.601418e+002
2.198665e+003,9.553362e+002
2.200593e+003,9.487377e+002
2.202521e+003,9.448183e+002
2.204450e+003,9.432999e+002
2.206378e+003,9.489924e+002
2.208307e+003,9.654655e+002
2.210235e+003,9.751210e+002
2.212164e+003,9.735510e+002
2.214092e+003,9.680610e+002
2.216021e+003,9.537930e+002
2.217949e+003,9.462076e+002
2.219878e+003,9.602005e+002
2.221806e+003,9.748655e+002
2.223735e+003,9.704496e+002
2.225663e+003,9.592268e+002
2.227592e+003,9.563228e+002
2.229520e+003,9.599396e+002
2.231448e+003,9.672050e+002
2.233377e+003,9.775239e+002
2.235305e+003,9.840947e+002
2.237234e+003,9.872256e+002
2.239162e+003,9.859647e+002
2.241091e+003,9.792979e+002
2.243019e+003,9.757169e+002
2.244948e+003,9.793203e+002
2.246876e+003,9.794850e+002
2.248805e+003,9.664572e+002
2.250733e+003,9.579658e+002
2.252662e+003,9.630035e+002
2.254590e+003,9.712635e+002
2.256519e+003,9.806873e+002
2.258447e+003,9.865049e+002
2.260375e+003,9.790189e+002
2.262304e+003,9.683493e+002
2.264232e+003,9.765745e+002
2.266161e+003,9.948858e+002
2.268089e+003,9.933194e+002
2.270018e+003,9.741023e+002
2.271946e+003,9.601184e+002
2.273875e+003,9.516872e+002
2.275803e+003,9.551372e+002
2.277732e+003,9.799303e+002
2.279660e+003,9.963602e+002
2.281589e+003,9.990207e+002
2.283517e+003,9.991240e+002
2.285446e+003,9.928682e+002
2.287374e+003,9.924867e+002
2.289302e+003,1.011351e+003
2.291231e+003,1.024815e+003
2.293159e+003,1.011623e+003
2.295088e+003,9.950271e+002
2.297016e+003,9.946570e+002
2.298945e+003,1.003135e+003
2.300873e+003,1.015298e+003
2.302802e+003,1.026869e+003
2.304730e+003,1.024542e+003
2.306659e+003,1.010594e+003
2.308587e+003,1.003224e+003
2.310516e+003,1.002804e+003
2.312444e+003,1.007849e+003
2.314373e+003,1.021225e+003
2.316301e+003,1.021395e+003
2.318229e+003,1.001122e+003
2.320158e+003,9.928167e+002
2.322086e+003,1.008823e+003
2.324015e+003,1.022349e+003
2.325943e+003,1.023896e+003
2.327872e+003,1.023198e+003
2.329800e+003,1.023104e+003
2.331729e+003,1.022430e+003
2.333657e+003,1.016818e+003
2.335586e+003,1.013597e+003
2.337514e+003,1.024793e+003
2.339443e+003,1.036784e+003
2.341371e+003,1.026228e+003
2.343300e+003,1.007252e+003
2.345228e+003,1.012988e+003
2.347156e+003,1.033077e+003
2.349085e+003,1.030183e+003
2.351013e+003,1.006920e+003
2.352942e+003,1.003107e+003
2.354870e+003,1.023487e+003
2.356799e+003,1.035305e+003
2.358727e+003,1.036302e+003
2.360656e+003,1.035019e+003
2.362584e+003,1.028989e+003
2.364513e+003,1.028580e+003
2.366441e+003,1.040178e+003
2.368370e+003,1.042839e+003
2.370298e+003,1.019990e+003
2.372227e+003,1.007339e+003
2.374155e+003,1.032570e+003
2.376083e+003,1.053962e+003
2.378012e+003,1.045665e+003
2.379940e+003,1.031521e+003
2.381869e+003,1.026526e+003
2.383797e+003,1.026689e+003
2.385726e+003,1.032847e+003
2.387654e+003,1.038271e+003
2.389583e+003,1.028795e+003
2.391511e+003,1.013867e+003
2.393440e+003,1.013232e+003
2.395368e+003,1.023162e+003
2.397297e+003,1.030841e+003
2.399225e+003,1.036107e+003
2.401154e+003,1.037556e+003
2.403082e+003,1.033681e+003
2.405010e+003,1.038215e+003
2.406939e+003,1.055157e+003
2.408867e+003,1.058668e+003
2.410796e+003,1.043825e+003
2.412724e+003,1.035207e+003
2.414653e+003,1.037743e+003
2.416581e+003,1.041909e+003
2.418510e+003,1.044313e+003
2.420438e+003,1.049414e+003
2.422367e+003,1.062858e+003
2.424295e+003,1.071353e+003
2.426224e+003,1.065973e+003
2.428152e+003,1.060494e+003
2.430081e+003,1.064937e+003
2.432009e+003,1.067613e+003
2.433938e+003,1.059517e+003
2.435866e+003,1.050711e+003
2.437794e+003,1.047174e+003
2.439723e+003,1.049172e+003
2.441651e+003,1.061485e+003
2.443580e+003,1.075597e+003
2.445508e+003,1.075858e+003
2.447437e+003,1.068582e+003
2.449365e+003,1.070069e+003
2.451294e+003,1.076658e+003
2.453222e+003,1.072761e+003
2.455151e+003,1.061990e+003
2.457079e+003,1.062335e+003
2.459008e+003,1.073254e+003
2.460936e+003,1.078844e+003
2.462865e+003,1.078076e+003
2.464793e+003,1.079009e+003
2.466721e+003,1.083776e+003
2.468650e+003,1.081091e+003
2.470578e+003,1.065810e+003
2.472507e+003,1.063131e+003
2.474435e+003,1.078906e+003
2.476364e+003,1.090537e+003
2.478292e+003,1.092587e+003
2.480221e+003,1.093797e+003
2.482149e+003,1.098423e+003
2.484078e+003,1.100013e+003
2.486006e+003,1.095659e+003
2.487935e+003,1.090961e+003
2.489863e+003,1.087217e+003
2.491792e+003,1.083801e+003
2.493720e+003,1.079097e+003
2.495648e+003,1.076108e+003
2.497577e+003,1.079770e+003
2.499505e+003,1.081204e+003
2.501434e+003,1.069136e+003
2.503362e+003,1.059128e+003
2.505291e+003,1.070486e+003
2.507219e+003,1.084419e+003
2.509148e+003,1.077008e+003
2.511076e+003,1.065256e+003
2.513005e+003,1.073292e+003
2.514933e+003,1.087792e+003
2.516862e+003,1.089464e+003
2.518790e+003,1.083516e+003
2.520719e+003,1.077900e+003
2.522647e+003,1.073394e+003
2.524575e+003,1.071478e+003
2.526504e+003,1.072747e+003
2.528432e+003,1.083768e+003
2.530361e+003,1.100562e+003
2.532289e+003,1.093971e+003
2.534218e+003,1.069970e+003
2.536146e+003,1.074185e+003
2.538075e+003,1.107161e+003
2.540003e+003,1.121355e+003
2.541932e+003,1.114343e+003
2.543860e+003,1.106069e+003
2.545789e+003,1.095764e+003
2.547717e+003,1.092423e+003
2.549646e+003,1.097573e+003
2.551574e+003,1.096995e+003
2.553502e+003,1.087596e+003
2.555431e+003,1.085099e+003
2.557359e+003,1.094730e+003
2.559288e+003,1.101402e+003
2.561216e+003,1.100720e+003
2.563145e+003,1.102025e+003
2.565073e+003,1.105032e+003
2.567002e+003,1.113012e+003
2.568930e+003,1.130438e+003
2.570859e+003,1.141145e+003
2.572787e+003,1.139493e+003
2.574716e+003,1.134429e+003
2.576644e+003,1.124133e+003
2.578573e+003,1.117217e+003
2.580501e+003,1.116559e+003
2.582429e+003,1.118095e+003
2.584358e+003,1.123962e+003
2.586287e+003,1.125339e+003
2.588215e+003,1.113646e+003
2.590144e+003,1.106569e+003
2.592072e+003,1.118223e+003
2.594000e+003,1.128821e+003
2.595929e+003,1.129965e+003
2.597857e+003,1.125920e+003
2.599786e+003,1.109299e+003
2.601714e+003,1.100484e+003
2.603643e+003,1.117831e+003
2.605571e+003,1.135634e+003
2.607500e+003,1.137986e+003
2.609428e+003,1.132704e+003
2.611357e+003,1.120182e+003
2.613285e+003,1.109193e+003
2.615214e+003,1.108019e+003
2.617142e+003,1.110581e+003
2.619071e+003,1.114044e+003
2.620999e+003,1.115960e+003
2.622927e+003,1.111397e+003
2.624856e+003,1.107119e+003
2.626784e+003,1.112977e+003
2.628713e+003,1.119932e+003
2.630641e+003,1.115359e+003
2.632570e+003,1.108445e+003
2.634498e+003,1.110610e+003
2.636427e+003,1.116934e+003
2.638355e+003,1.123622e+003
2.640284e+003,1.128541e+003
2.642212e+003,1.125018e+003
2.644141e+003,1.120807e+003
2.646069e+003,1.134691e+003
2.647998e+003,1.150059e+003
2.649926e+003,1.131066e+003
2.651854e+003,1.101187e+003
2.653783e+003,1.105180e+003
2.655711e+003,1.121567e+003
2.657640e+003,1.114677e+003
2.659568e+003,1.096931e+003
2.661497e+003,1.087146e+003
2.663425e+003,1.086201e+003
2.665354e+003,1.101417e+003
2.667282e+003,1.123323e+003
2.669211e+003,1.129910e+003
2.671139e+003,1.128800e+003
2.673068e+003,1.136096e+003
2.674996e+003,1.146446e+003
2.676925e+003,1.148979e+003
2.678853e+003,1.145403e+003
2.680781e+003,1.137172e+003
2.682710e+003,1.127641e+003
2.684638e+003,1.126672e+003
2.686567e+003,1.129686e+003
2.688495e+003,1.125606e+003
2.690424e+003,1.118281e+003
2.692352e+003,1.116770e+003
2.694281e+003,1.119354e+003
2.696209e+003,1.122505e+003
2.698138e+003,1.125582e+003
2.700066e+003,1.124721e+003
2.701995e+003,1.123076e+003
2.703923e+003,1.129535e+003
2.705852e+003,1.139296e+003
2.707780e+003,1.141289e+003
2.709708e+003,1.137391e+003
2.711637e+003,1.130160e+003
2.713565e+003,1.122832e+003
2.715494e+003,1.126203e+003
2.717422e+003,1.134139e+003
2.719351e+003,1.134281e+003
2.721279e+003,1.129851e+003
2.723208e+003,1.127801e+003
2.725136e+003,1.126042e+003
2.727065e+003,1.114809e+003
2.728993e+003,1.103016e+003
2.730922e+003,1.111728e+003
2.732850e+003,1.129765e+003
2.734779e+003,1.141056e+003
2.736707e+003,1.145407e+003
2.738635e+003,1.140782e+003
2.740564e+003,1.130865e+003
2.742492e+003,1.119363e+003
2.744421e+003,1.110000e+003
2.746349e+003,1.109489e+003
2.748278e+003,1.113751e+003
2.750206e+003,1.119511e+003
2.752135e+003,1.123495e+003
2.754063e+003,1.119370e+003
2.755992e+003,1.111644e+003
2.757920e+003,1.102654e+003
2.759849e+003,1.097870e+003
2.761777e+003,1.110256e+003
2.763706e+003,1.123753e+003
2.765634e+003,1.116680e+003
2.767563e+003,1.105140e+003
2.769491e+003,1.103847e+003
2.771419e+003,1.109552e+003
2.773348e+003,1.127947e+003
2.775276e+003,1.140258e+003
2.777205e+003,1.120279e+003
2.779133e+003,1.098069e+003
2.781062e+003,1.100987e+003
2.782990e+003,1.109982e+003
2.784919e+003,1.110866e+003
2.786847e+003,1.111529e+003
2.788776e+003,1.116818e+003
2.790704e+003,1.123901e+003
2.792633e+003,1.138225e+003
2.794561e+003,1.144550e+003
2.796490e+003,1.120880e+003
2.798418e+003,1.108874e+003
2.800346e+003,1.137430e+003
2.802275e+003,1.162152e+003
2.804203e+003,1.158071e+003
2.806132e+003,1.150274e+003
2.808060e+003,1.141974e+003
2.809989e+003,1.141790e+003
2.811917e+003,1.159546e+003
2.813846e+003,1.167054e+003
2.815774e+003,1.147923e+003
2.817703e+003,1.136916e+003
2.819631e+003,1.148202e+003
2.821560e+003,1.164290e+003
2.823488e+003,1.189216e+003
2.825417e+003,1.200915e+003
2.827345e+003,1.188953e+003
2.829273e+003,1.197481e+003
2.831202e+003,1.245114e+003
2.833130e+003,1.280236e+003
2.835059e+003,1.286910e+003
2.836987e+003,1.304228e+003
2.838916e+003,1.333554e+003
2.840844e+003,1.371672e+003
2.842773e+003,1.420530e+003
2.844701e+003,1.437817e+003
2.846630e+003,1.412758e+003
2.848558e+003,1.412051e+003
2.850487e+003,1.437864e+003
2.852415e+003,1.445349e+003
2.854344e+003,1.435347e+003
2.856272e+003,1.420749e+003
2.858200e+003,1.401466e+003
2.860129e+003,1.371339e+003
2.862057e+003,1.332986e+003
2.863986e+003,1.301778e+003
2.865914e+003,1.276515e+003
2.867843e+003,1.253498e+003
2.869771e+003,1.233698e+003
2.871700e+003,1.217455e+003
2.873628e+003,1.207288e+003
2.875557e+003,1.210465e+003
2.877485e+003,1.221010e+003
2.879414e+003,1.234194e+003
2.881342e+003,1.245186e+003
2.883271e+003,1.242968e+003
2.885199e+003,1.242649e+003
2.887127e+003,1.250406e+003
2.889056e+003,1.278382e+003
2.890984e+003,1.345354e+003
2.892913e+003,1.423036e+003
2.894841e+003,1.501234e+003
2.896770e+003,1.573216e+003
2.898698e+003,1.652429e+003
2.900627e+003,1.695120e+003
2.902555e+003,1.678551e+003
2.904484e+003,1.636895e+003
2.906412e+003,1.568975e+003
2.908341e+003,1.506698e+003
2.910269e+003,1.449846e+003
2.912198e+003,1.419167e+003
2.914126e+003,1.416419e+003
2.916054e+003,1.441764e+003
2.917983e+003,1.499818e+003
2.919911e+003,1.554608e+003
2.921840e+003,1.602245e+003
2.923768e+003,1.644247e+003
2.925697e+003,1.683523e+003
2.927625e+003,1.682007e+003
2.929554e+003,1.643174e+003
2.931482e+003,1.610941e+003
2.933411e+003,1.587360e+003
2.935339e+003,1.571074e+003
2.937268e+003,1.564610e+003
2.939196e+003,1.586885e+003
2.941125e+003,1.624687e+003
2.943053e+003,1.658356e+003
2.944981e+003,1.676303e+003
2.946910e+003,1.653067e+003
2.948838e+003,1.608737e+003
2.950767e+003,1.564481e+003
2.952695e+003,1.518680e+003
2.954624e+003,1.453585e+003
2.956552e+003,1.408369e+003
2.958481e+003,1.425893e+003
2.960409e+003,1.450450e+003
2.962338e+003,1.449272e+003
2.964266e+003,1.452617e+003
2.966195e+003,1.474051e+003
2.968123e+003,1.493990e+003
2.970052e+003,1.513154e+003
2.971980e+003,1.515602e+003
2.973908e+003,1.496827e+003
2.975837e+003,1.470391e+003
2.977765e+003,1.435192e+003
2.979694e+003,1.413924e+003
2.981622e+003,1.415202e+003
2.983551e+003,1.392307e+003
2.985479e+003,1.344771e+003
2.987408e+003,1.310289e+003
2.989336e+003,1.288967e+003
2.991265e+003,1.279701e+003
2.993193e+003,1.279177e+003
2.995122e+003,1.278397e+003
2.997050e+003,1.278044e+003
2.998979e+003,1.275929e+003
3.000907e+003,1.278525e+003
3.002835e+003,1.301020e+003
3.004764e+003,1.322950e+003
3.006692e+003,1.317408e+003
3.008621e+003,1.311208e+003
3.010549e+003,1.320344e+003
3.012478e+003,1.335885e+003
3.014406e+003,1.353465e+003
3.016335e+003,1.376671e+003
3.018263e+003,1.410353e+003
3.020192e+003,1.446190e+003
3.022120e+003,1.488485e+003
3.024049e+003,1.506681e+003
3.025977e+003,1.483932e+003
3.027906e+003,1.484048e+003
3.029834e+003,1.512421e+003
3.031762e+003,1.530525e+003
3.033691e+003,1.543955e+003
3.035619e+003,1.611340e+003
3.037548e+003,1.730391e+003
3.039476e+003,1.887833e+003
3.041405e+003,2.083759e+003
3.043333e+003,2.351366e+003
3.045262e+003,2.624190e+003
3.047190e+003,2.884038e+003
3.049119e+003,3.010484e+003
3.051047e+003,2.820499e+003
3.052976e+003,2.521824e+003
3.054904e+003,2.190159e+003
3.056833e+003,1.903016e+003
3.058761e+003,1.683920e+003
3.060689e+003,1.544219e+003
3.062618e+003,1.518878e+003
3.064546e+003,1.496535e+003
3.066475e+003,1.461986e+003
3.068403e+003,1.451120e+003
3.070332e+003,1.475434e+003
3.072260e+003,1.488575e+003
3.074189e+003,1.489455e+003
3.076117e+003,1.471124e+003
3.078046e+003,1.438280e+003
3.079974e+003,1.412134e+003
3.081903e+003,1.389798e+003
3.083831e+003,1.363570e+003
3.085760e+003,1.338763e+003
3.087688e+003,1.321888e+003
3.089616e+003,1.311839e+003
3.091545e+003,1.306403e+003
3.093473e+003,1.310157e+003
3.095402e+003,1.336148e+003
3.097330e+003,1.353146e+003
3.099259e+003,1.349034e+003
3.101187e+003,1.342322e+003
3.103116e+003,1.333603e+003
3.105044e+003,1.330807e+003
3.106973e+003,1.334246e+003
3.108901e+003,1.349511e+003
3.110830e+003,1.374828e+003
3.112758e+003,1.368905e+003
3.114687e+003,1.339418e+003
3.116615e+003,1.320782e+003
3.118543e+003,1.311682e+003
3.120472e+003,1.316459e+003
3.122400e+003,1.319937e+003
3.124329e+003,1.298149e+003
3.126257e+003,1.275965e+003
3.128186e+003,1.275508e+003
3.130114e+003,1.275424e+003
3.132043e+003,1.267711e+003
3.133971e+003,1.256330e+003
3.135900e+003,1.229984e+003
3.137828e+003,1.238438e+003
3.139757e+003,1.292465e+003
3.141685e+003,1.311297e+003
3.143614e+003,1.283967e+003
3.145542e+003,1.272819e+003
3.147470e+003,1.275660e+003
3.149399e+003,1.282925e+003
3.151327e+003,1.290032e+003
3.153256e+003,1.287059e+003
3.155184e+003,1.279057e+003
3.157113e+003,1.269057e+003
3.159041e+003,1.260748e+003
3.160970e+003,1.259532e+003
3.162898e+003,1.254240e+003
3.164827e+003,1.234351e+003
3.166755e+003,1.218992e+003
3.168684e+003,1.209833e+003
3.170612e+003,1.217918e+003
3.172541e+003,1.250641e+003
3.174469e+003,1.256315e+003
3.176397e+003,1.234932e+003
3.178326e+003,1.236090e+003
3.180254e+003,1.250341e+003
3.182183e+003,1.245810e+003
3.184111e+003,1.238287e+003
3.186040e+003,1.263240e+003
3.187968e+003,1.285433e+003
3.189897e+003,1.270134e+003
3.191825e+003,1.252957e+003
3.193754e+003,1.251717e+003
3.195682e+003,1.256115e+003
3.197611e+003,1.266248e+003
3.199539e+003,1.271007e+003
3.201468e+003,1.267427e+003
3.203396e+003,1.270051e+003
3.205324e+003,1.279188e+003
3.207253e+003,1.271171e+003
3.209181e+003,1.251725e+003
3.211110e+003,1.231593e+003
3.213038e+003,1.219381e+003
3.214967e+003,1.236324e+003
3.216895e+003,1.257309e+003
3.218824e+003,1.265787e+003
3.220752e+003,1.265891e+003
3.222681e+003,1.247097e+003
3.224609e+003,1.245664e+003
3.226538e+003,1.271972e+003
3.228466e+003,1.293217e+003
3.230395e+003,1.305004e+003
3.232323e+003,1.305456e+003
3.234251e+003,1.295824e+003
3.236180e+003,1.288952e+003
3.238108e+003,1.281465e+003
3.240037e+003,1.262769e+003
3.241965e+003,1.244657e+003
3.243894e+003,1.241671e+003
3.245822e+003,1.244357e+003
3.247751e+003,1.250831e+003
3.249679e+003,1.253962e+003
3.251608e+003,1.246974e+003
3.253536e+003,1.244397e+003
3.255465e+003,1.247286e+003
3.257393e+003,1.252940e+003
3.259322e+003,1.260555e+003
3.261250e+003,1.262870e+003
3.263178e+003,1.260818e+003
3.265107e+003,1.249282e+003
3.267035e+003,1.244711e+003
3.268964e+003,1.283595e+003
3.270892e+003,1.313287e+003
3.272821e+003,1.288344e+003
3.274749e+003,1.264894e+003
3.276678e+003,1.262683e+003
3.278606e+003,1.257920e+003
3.280535e+003,1.244871e+003
3.282463e+003,1.242575e+003
3.284392e+003,1.250513e+003
3.286320e+003,1.264040e+003
3.288249e+003,1.277286e+003
3.290177e+003,1.274887e+003
3.292105e+003,1.264217e+003
3.294034e+003,1.245546e+003
3.295962e+003,1.236074e+003
3.297891e+003,1.254218e+003
3.299819e+003,1.270245e+003
3.301748e+003,1.278260e+003
3.303676e+003,1.278502e+003
3.305605e+003,1.268625e+003
3.307533e+003,1.264398e+003
3.309462e+003,1.265367e+003
3.311390e+003,1.274346e+003
3.313319e+003,1.282230e+003
3.315247e+003,1.265304e+003
3.317176e+003,1.249600e+003
3.319104e+003,1.262380e+003
3.321032e+003,1.275280e+003
3.322961e+003,1.276300e+003
3.324889e+003,1.273102e+003
3.326818e+003,1.265302e+003
3.328746e+003,1.265282e+003
3.330675e+003,1.272976e+003
3.332603e+003,1.273309e+003
3.334532e+003,1.270411e+003
3.336460e+003,1.282029e+003
3.338389e+003,1.292810e+003
3.340317e+003,1.285108e+003
3.342246e+003,1.273159e+003
3.344174e+003,1.262136e+003
3.346103e+003,1.255926e+003
3.348031e+003,1.254434e+003
3.349959e+003,1.266508e+003
3.351888e+003,1.293708e+003
3.353816e+003,1.310683e+003
3.355745e+003,1.319256e+003
3.357673e+003,1.326363e+003
3.359602e+003,1.329495e+003
3.361530e+003,1.314435e+003
3.363459e+003,1.310716e+003
3.365387e+003,1.349405e+003
3.367316e+003,1.373753e+003
3.369244e+003,1.361158e+003
3.371173e+003,1.364572e+003
3.373101e+003,1.387425e+003
3.375030e+003,1.420280e+003
3.376958e+003,1.459140e+003
3.378886e+003,1.482129e+003
3.380815e+003,1.516242e+003
3.382743e+003,1.580948e+003
3.384672e+003,1.685879e+003
3.386600e+003,1.844978e+003
3.388529e+003,2.030056e+003
3.390457e+003,2.229222e+003
3.392386e+003,2.515642e+003
3.394314e+003,2.894226e+003
3.396243e+003,3.146884e+003
3.398171e+003,3.260484e+003
3.400100e+003,3.206622e+003
3.402028e+003,3.045040e+003
3.403957e+003,2.798213e+003
3.405885e+003,2.536318e+003
3.407813e+003,2.273932e+003
3.409742e+003,2.040908e+003
3.411670e+003,1.839632e+003
3.413599e+003,1.676972e+003
3.415527e+003,1.556478e+003
3.417456e+003,1.491906e+003
3.419384e+003,1.464625e+003
3.421313e+003,1.454785e+003
3.423241e+003,1.444114e+003
3.425170e+003,1.415224e+003
3.427098e+003,1.388311e+003
3.429027e+003,1.362880e+003
3.430955e+003,1.372068e+003
3.432884e+003,1.420480e+003
3.434812e+003,1.427865e+003
3.436740e+003,1.405222e+003
3.438669e+003,1.394282e+003
3.440597e+003,1.385515e+003
3.442526e+003,1.366862e+003
3.444454e+003,1.350141e+003
3.446383e+003,1.339914e+003
3.448311e+003,1.334896e+003
3.450240e+003,1.336941e+003
3.452168e+003,1.327838e+003
3.454097e+003,1.310396e+003
3.456025e+003,1.310171e+003
3.457954e+003,1.317163e+003
3.459882e+003,1.319437e+003
3.461811e+003,1.318569e+003
3.463739e+003,1.315587e+003
3.465667e+003,1.311974e+003
3.467596e+003,1.307426e+003
3.469524e+003,1.306003e+003
3.471453e+003,1.306490e+003
3.473381e+003,1.295994e+003
3.475310e+003,1.283436e+003
3.477238e+003,1.294560e+003
3.479167e+003,1.303233e+003
3.481095e+003,1.282979e+003
3.483024e+003,1.269218e+003
3.484952e+003,1.272806e+003
3.486881e+003,1.284053e+003
3.488809e+003,1.300533e+003
3.490738e+003,1.295671e+003
3.492666e+003,1.281722e+003
3.494594e+003,1.292296e+003
3.496523e+003,1.307642e+003
3.498451e+003,1.319542e+003
3.500380e+003,1.314726e+003
3.502308e+003,1.283974e+003
3.504237e+003,1.271006e+003
3.506165e+003,1.281298e+003
3.508094e+003,1.312920e+003
3.510022e+003,1.350271e+003
3.511951e+003,1.356494e+003
3.513879e+003,1.347667e+003
3.515808e+003,1.331296e+003
3.517736e+003,1.314457e+003
3.519665e+003,1.296193e+003
3.521593e+003,1.298705e+003
3.523521e+003,1.323275e+003
3.525450e+003,1.327606e+003
3.527378e+003,1.318026e+003
3.529307e+003,1.298742e+003
3.531235e+003,1.288263e+003
3.533164e+003,1.309756e+003
3.535092e+003,1.320565e+003
3.537021e+003,1.299505e+003
3.538949e+003,1.304937e+003
3.540878e+003,1.333423e+003
3.542806e+003,1.330215e+003
3.544735e+003,1.314866e+003
3.546663e+003,1.319452e+003
3.548592e+003,1.326139e+003
3.550520e+003,1.324565e+003
3.552448e+003,1.322197e+003
3.554377e+003,1.321462e+003
3.556305e+003,1.309853e+003
3.558234e+003,1.294763e+003
3.560162e+003,1.316217e+003
3.562091e+003,1.343177e+003
3.564019e+003,1.333597e+003
3.565948e+003,1.317217e+003
3.567876e+003,1.298812e+003
3.569805e+003,1.298271e+003
3.571733e+003,1.316376e+003
3.573662e+003,1.334092e+003
3.575590e+003,1.344996e+003
3.577519e+003,1.322745e+003
3.579447e+003,1.301462e+003
3.581376e+003,1.314081e+003
3.583304e+003,1.324324e+003
3.585233e+003,1.320042e+003
3.587161e+003,1.324728e+003
3.589090e+003,1.337286e+003
3.591018e+003,1.335216e+003
3.592947e+003,1.328689e+003
3.594875e+003,1.338918e+003
3.596803e+003,1.343427e+003
3.598732e+003,1.323681e+003
3.600660e+003,1.310591e+003
3.602589e+003,1.307358e+003
3.604517e+003,1.317086e+003
3.606446e+003,1.321408e+003
3.608374e+003,1.224825e+003
3.610303e+003,1.150745e+003
3.612231e+003,1.234301e+003
3.614160e+003,1.305897e+003
3.616088e+003,1.325581e+003
3.618017e+003,1.342554e+003
3.619945e+003,1.357738e+003
3.621874e+003,1.336052e+003
3.623802e+003,1.306437e+003
3.625730e+003,1.305407e+003
3.627659e+003,1.309153e+003
3.629587e+003,1.305886e+003
3.631516e+003,1.311063e+003
3.633444e+003,1.326632e+003
3.635373e+003,1.338845e+003
3.637301e+003,1.346635e+003
3.639230e+003,1.346691e+003
3.641158e+003,1.344739e+003
3.643087e+003,1.349594e+003
3.645015e+003,1.340256e+003
3.646944e+003,1.312592e+003
3.648872e+003,1.303956e+003
3.650801e+003,1.309288e+003
3.652729e+003,1.314216e+003
3.654657e+003,1.312346e+003
3.656586e+003,1.284641e+003
3.658514e+003,1.278257e+003
3.660443e+003,1.306192e+003
3.662371e+003,1.321092e+003
3.664300e+003,1.322789e+003
3.666228e+003,1.321894e+003
3.668157e+003,1.317674e+003
3.670085e+003,1.305400e+003
3.672014e+003,1.297116e+003
3.673942e+003,1.296144e+003
3.675871e+003,1.296768e+003
3.677799e+003,1.298136e+003
3.679728e+003,1.297261e+003
3.681656e+003,1.299440e+003
3.683584e+003,1.318009e+003
3.685513e+003,1.327086e+003
3.687441e+003,1.315387e+003
3.689370e+003,1.309837e+003
3.691298e+003,1.313039e+003
3.693227e+003,1.328081e+003
3.695155e+003,1.339731e+003
3.697084e+003,1.322784e+003
3.699012e+003,1.306418e+003
3.700941e+003,1.302197e+003
3.702869e+003,1.304995e+003
3.704798e+003,1.312861e+003
3.706726e+003,1.298254e+003
3.708655e+003,1.279139e+003
3.710583e+003,1.280030e+003
3.712511e+003,1.287645e+003
3.714440e+003,1.298551e+003
3.716368e+003,1.304015e+003
3.718297e+003,1.303341e+003
3.720225e+003,1.307361e+003
3.722154e+003,1.305807e+003
3.724082e+003,1.274551e+003
3.726011e+003,1.254960e+003
3.727939e+003,1.271927e+003
3.729868e+003,1.265575e+003
3.731796e+003,1.235342e+003
3.733725e+003,1.240641e+003
3.735653e+003,1.258381e+003
3.737582e+003,1.259675e+003
3.739510e+003,1.256367e+003
3.741438e+003,1.251584e+003
3.743367e+003,1.248061e+003
3.745295e+003,1.247429e+003
3.747224e+003,1.262001e+003
3.749152e+003,1.276997e+003
3.751081e+003,1.274317e+003
3.753009e+003,1.268895e+003
3.754938e+003,1.263916e+003
3.756866e+003,1.266547e+003
3.758795e+003,1.273480e+003
3.760723e+003,1.266061e+003
3.762652e+003,1.257207e+003
3.764580e+003,1.262035e+003
3.766509e+003,1.261835e+003
3.768437e+003,1.251838e+003
3.770365e+003,1.239467e+003
3.772294e+003,1.231193e+003
3.774222e+003,1.255446e+003
3.776151e+003,1.275384e+003
3.778079e+003,1.254437e+003
3.780008e+003,1.253389e+003
3.781936e+003,1.281540e+003
3.783865e+003,1.295825e+003
3.785793e+003,1.296603e+003
3.787722e+003,1.278049e+003
3.789650e+003,1.263265e+003
3.791579e+003,1.266634e+003
3.793507e+003,1.267387e+003
3.795436e+003,1.264160e+003
3.797364e+003,1.268136e+003
3.799292e+003,1.274571e+003
3.801221e+003,1.282058e+003
3.803149e+003,1.277939e+003
3.805078e+003,1.250853e+003
3.807006e+003,1.246111e+003
3.808935e+003,1.259162e+003
3.810863e+003,1.266624e+003
3.812792e+003,1.266954e+003
3.814720e+003,1.253083e+003
3.816649e+003,1.247267e+003
3.818577e+003,1.256568e+003
3.820506e+003,1.256977e+003
3.822434e+003,1.250736e+003
3.824363e+003,1.234523e+003
3.826291e+003,1.233119e+003
3.828219e+003,1.266454e+003
3.830148e+003,1.276995e+003
3.832076e+003,1.260832e+003
3.834005e+003,1.252980e+003
3.835933e+003,1.250981e+003
3.837862e+003,1.254353e+003
3.839790e+003,1.255585e+003
3.841719e+003,1.252198e+003
3.843647e+003,1.259198e+003
3.845576e+003,1.271376e+003
3.847504e+003,1.271061e+003
3.849433e+003,1.266692e+003
3.851361e+003,1.261820e+003
3.853290e+003,1.259854e+003
3.855218e+003,1.259844e+003
3.857146e+003,1.244060e+003
3.859075e+003,1.231435e+003
3.861003e+003,1.259247e+003
3.862932e+003,1.272178e+003
3.864860e+003,1.243376e+003
3.866789e+003,1.235541e+003
3.868717e+003,1.244921e+003
3.870646e+003,1.257430e+003
3.872574e+003,1.267706e+003
3.874503e+003,1.276665e+003
3.876431e+003,1.261264e+003
3.878360e+003,1.222973e+003
3.880288e+003,1.238646e+003
3.882217e+003,1.267098e+003
3.884145e+003,1.251578e+003
3.886073e+003,1.242191e+003
3.888002e+003,1.255039e+003
3.889930e+003,1.261357e+003
3.891859e+003,1.259879e+003
3.893787e+003,1.243177e+003
3.895716e+003,1.232760e+003
3.897644e+003,1.243158e+003
3.899573e+003,1.244134e+003
3.901501e+003,1.233919e+003
3.903430e+003,1.226387e+003
3.905358e+003,1.222519e+003
3.907287e+003,1.225800e+003
3.909215e+003,1.226201e+003
3.911144e+003,1.222333e+003
3.913072e+003,1.228294e+003
3.915000e+003,1.236608e+003
3.916929e+003,1.239304e+003
3.918857e+003,1.225014e+003
3.920786e+003,1.175169e+003
3.922714e+003,1.175484e+003
3.924643e+003,1.207598e+003
3.926571e+003,1.200716e+003
3.928500e+003,1.191261e+003
3.930428e+003,1.205492e+003
3.932357e+003,1.202612e+003
3.934285e+003,1.184146e+003
3.936214e+003,1.204201e+003
3.938142e+003,1.227932e+003
3.940071e+003,1.216041e+003
3.941999e+003,1.205140e+003
3.943927e+003,1.202560e+003
3.945856e+003,1.192157e+003
3.947784e+003,1.183555e+003
3.949713e+003,1.194328e+003
3.951641e+003,1.205943e+003
3.953570e+003,1.214081e+003
3.955498e+003,1.207478e+003
3.957427e+003,1.192009e+003
3.959355e+003,1.177703e+003
3.961284e+003,1.170594e+003
3.963212e+003,1.173708e+003
3.965141e+003,1.192431e+003
3.967069e+003,1.218110e+003
3.968998e+003,1.210688e+003
3.970926e+003,1.197982e+003
3.972854e+003,1.203602e+003
3.974783e+003,1.189083e+003
3.976711e+003,1.158366e+003
3.978640e+003,1.177981e+003
3.980568e+003,1.203136e+003
3.982497e+003,1.189232e+003
3.984425e+003,1.173597e+003
3.986354e+003,1.163209e+003
3.988282e+003,1.170262e+003
3.990211e+003,1.176623e+003
3.992139e+003,1.148808e+003
3.994068e+003,1.139249e+003
3.995996e+003,1.159353e+003
3.997925e+003,1.160774e+003
3.999853e+003,1.157996e+003
4.001781e+003,1.190156e+003
4.003710e+003,1.198427e+003
4.005638e+003,1.162608e+003
4.007567e+003,1.148510e+003
4.009495e+003,1.148673e+003
4.011424e+003,1.140607e+003
4.013352e+003,1.136549e+003
4.015281e+003,1.141713e+003
4.017209e+003,1.157418e+003
4.019138e+003,1.173400e+003
4.021066e+003,1.160821e+003
4.022995e+003,1.148110e+003
4.024923e+003,1.148070e+003
4.026852e+003,1.150812e+003
4.028780e+003,1.156379e+003
4.030708e+003,1.174300e+003
4.032637e+003,1.185405e+003
4.034565e+003,1.178632e+003
4.036494e+003,1.159748e+003
4.038422e+003,1.137449e+003
4.040351e+003,1.151199e+003
4.042279e+003,1.165548e+003
4.044208e+003,1.153299e+003
4.046136e+003,1.148318e+003
4.048065e+003,1.150904e+003
4.049993e+003,1.157611e+003
4.051922e+003,1.157361e+003
4.053850e+003,1.139945e+003
4.055779e+003,1.136867e+003
4.057707e+003,1.145956e+003
4.059635e+003,1.134344e+003
4.061564e+003,1.131991e+003
4.063492e+003,1.167099e+003
4.065421e+003,1.168175e+003
4.067349e+003,1.139430e+003
4.069278e+003,1.153994e+003
4.071206e+003,1.169056e+003
4.073135e+003,1.146048e+003
4.075063e+003,1.139482e+003
4.076992e+003,1.149086e+003
4.078920e+003,1.155948e+003
4.080849e+003,1.158601e+003
4.082777e+003,1.153538e+003
4.084706e+003,1.154836e+003
4.086634e+003,1.160685e+003
4.088563e+003,1.159206e+003
4.090491e+003,1.158625e+003
4.092419e+003,1.165990e+003
4.094348e+003,1.157313e+003
4.096276e+003,1.140522e+003
4.098205e+003,1.166370e+003
4.100133e+003,1.180219e+003
4.102062e+003,1.143350e+003
4.103990e+003,1.129615e+003
4.105919e+003,1.134678e+003
4.107847e+003,1.125302e+003
4.109776e+003,1.124241e+003
4.111704e+003,1.156030e+003
4.113633e+003,1.152100e+003
4.115561e+003,1.132009e+003
4.117490e+003,1.151504e+003
4.119418e+003,1.166627e+003
4.121347e+003,1.160041e+003
4.123275e+003,1.153109e+003
4.125204e+003,1.147519e+003
4.127132e+003,1.142121e+003
4.129061e+003,1.141963e+003
4.130989e+003,1.148158e+003
4.132917e+003,1.143720e+003
4.134846e+003,1.137784e+003
4.136774e+003,1.147002e+003
4.138703e+003,1.157236e+003
4.140631e+003,1.165241e+003
4.142560e+003,1.147136e+003
4.144488e+003,1.130652e+003
4.146417e+003,1.159104e+003
4.148345e+003,1.171161e+003
4.150273e+003,1.157946e+003
4.152202e+003,1.154871e+003
4.154130e+003,1.157836e+003
4.156059e+003,1.167241e+003
4.157987e+003,1.168917e+003
4.159916e+003,1.162417e+003
4.161844e+003,1.155398e+003
4.163773e+003,1.148772e+003
4.165701e+003,1.142203e+003
4.167630e+003,1.139477e+003
4.169558e+003,1.141807e+003
4.171487e+003,1.155577e+003
4.173415e+003,1.164076e+003
4.175344e+003,1.160006e+003
4.177272e+003,1.155066e+003
4.179201e+003,1.150232e+003
4.181129e+003,1.139999e+003
4.183058e+003,1.147366e+003
4.184986e+003,1.176237e+003
4.186915e+003,1.173533e+003
4.188843e+003,1.157148e+003
4.190771e+003,1.145179e+003
4.192700e+003,1.147411e+003
4.194628e+003,1.162879e+003
4.196557e+003,1.165064e+003
4.198485e+003,1.163174e+003
4.200414e+003,1.164410e+003
4.202342e+003,1.160548e+003
4.204271e+003,1.155376e+003
4.206199e+003,1.176368e+003
4.208127e+003,1.187484e+003
4.210056e+003,1.166355e+003
4.211984e+003,1.159379e+003
4.213913e+003,1.160856e+003
4.215841e+003,1.153246e+003
4.217770e+003,1.154737e+003
4.219698e+003,1.172848e+003
4.221627e+003,1.173908e+003
4.223555e+003,1.164709e+003
4.225484e+003,1.144648e+003
4.227412e+003,1.140998e+003
4.229341e+003,1.153231e+003
4.231269e+003,1.146445e+003
4.233198e+003,1.145924e+003
4.235126e+003,1.182553e+003
4.237055e+003,1.180581e+003
4.238983e+003,1.154972e+003
4.240912e+003,1.146837e+003
4.242840e+003,1.144025e+003
4.244769e+003,1.143233e+003
4.246697e+003,1.147397e+003
4.248625e+003,1.146710e+003
4.250554e+003,1.137850e+003
