1.159199e+002,1.021040e+002
1.178484e+002,1.212188e+002
1.197769e+002,1.351487e+002
1.217053e+002,1.435114e+002
1.236338e+002,1.478521e+002
1.255623e+002,1.454959e+002
1.274907e+002,1.406752e+002
1.294192e+002,1.368610e+002
1.313477e+002,1.316972e+002
1.332761e+002,1.307817e+002
1.352046e+002,1.391349e+002
1.371331e+002,1.595191e+002
1.390615e+002,1.715554e+002
1.409900e+002,1.647995e+002
1.429185e+002,1.482109e+002
1.448469e+002,1.379834e+002
1.467754e+002,1.385656e+002
1.487039e+002,1.413102e+002
1.506323e+002,1.438733e+002
1.525608e+002,1.471102e+002
1.544893e+002,1.465889e+002
1.564177e+002,1.400426e+002
1.583462e+002,1.291293e+002
1.602747e+002,1.215283e+002
1.622031e+002,1.217090e+002
1.641316e+002,1.211377e+002
1.660601e+002,1.148707e+002
1.679885e+002,9.901868e+001
1.699170e+002,8.665569e+001
1.718455e+002,8.096014e+001
1.737739e+002,8.194521e+001
1.757024e+002,8.140176e+001
1.776309e+002,7.660760e+001
1.795593e+002,7.179354e+001
1.814878e+002,7.045955e+001
1.834163e+002,7.736147e+001
1.853447e+002,8.284791e+001
1.872732e+002,8.493089e+001
1.892017e+002,8.398464e+001
1.911301e+002,8.255288e+001
1.930586e+002,8.229601e+001
1.949871e+002,8.155286e+001
1.969155e+002,7.763856e+001
1.988440e+002,6.479323e+001
2.007725e+002,5.463526e+001
2.027009e+002,5.188768e+001
2.046294e+002,5.673476e+001
2.065579e+002,6.097097e+001
2.084864e+002,6.344128e+001
2.104148e+002,6.444904e+001
2.123433e+002,6.437251e+001
2.142718e+002,6.039248e+001
2.162002e+002,5.858915e+001
2.181287e+002,6.233898e+001
2.200572e+002,7.554350e+001
2.219856e+002,8.387771e+001
2.239141e+002,8.441512e+001
2.258426e+002,7.918157e+001
2.277710e+002,7.411436e+001
2.296995e+002,6.755981e+001
2.316280e+002,6.321980e+001
2.335564e+002,6.266526e+001
2.354849e+002,6.991274e+001
2.374134e+002,7.580832e+001
2.393418e+002,7.959769e+001
2.412703e+002,8.199341e+001
2.431988e+002,8.464354e+001
2.451272e+002,8.933167e+001
2.470557e+002,9.286035e+001
2.489842e+002,9.329585e+001
2.509126e+002,8.916265e+001
2.528411e+002,8.489884e+001
2.547696e+002,8.068584e+001
2.566980e+002,7.669272e+001
2.586265e+002,7.346839e+001
2.605550e+002,7.195080e+001
2.624834e+002,7.061385e+001
2.644119e+002,6.818806e+001
2.663404e+002,6.388464e+001
2.682688e+002,6.151450e+001
2.701973e+002,6.380176e+001
2.721258e+002,6.936759e+001
2.740542e+002,7.200994e+001
2.759827e+002,6.930972e+001
2.779112e+002,6.567881e+001
2.798396e+002,6.370140e+001
2.817681e+002,6.373410e+001
2.836966e+002,6.303630e+001
2.856250e+002,6.003218e+001
2.875535e+002,5.554605e+001
2.894820e+002,5.320440e+001
2.914104e+002,5.565976e+001
2.933389e+002,5.773596e+001
2.952674e+002,5.630125e+001
2.971958e+002,5.019815e+001
2.991243e+002,4.628256e+001
3.010528e+002,4.656535e+001
3.029813e+002,4.986768e+001
3.049097e+002,5.248824e+001
3.068382e+002,5.503221e+001
3.087667e+002,5.620882e+001
3.106951e+002,5.479014e+001
3.126236e+002,4.910136e+001
3.145521e+002,4.631963e+001
3.164805e+002,4.956623e+001
3.184090e+002,5.577261e+001
3.203375e+002,5.841105e+001
3.222659e+002,5.529766e+001
3.241944e+002,5.184813e+001
3.261229e+002,5.015999e+001
3.280513e+002,5.095662e+001
3.299798e+002,5.186995e+001
3.319083e+002,5.268846e+001
3.338367e+002,5.366273e+001
3.357652e+002,5.522900e+001
3.376937e+002,5.817738e+001
3.396221e+002,6.030374e+001
3.415506e+002,6.057859e+001
3.434791e+002,5.839838e+001
3.454075e+002,5.736185e+001
3.473360e+002,5.784080e+001
3.492645e+002,5.929583e+001
3.511929e+002,6.123153e+001
3.531214e+002,6.407938e+001
3.550499e+002,6.659019e+001
3.569783e+002,6.775522e+001
3.589068e+002,6.772326e+001
3.608353e+002,6.979404e+001
3.627637e+002,7.366797e+001
3.646922e+002,7.999294e+001
3.666207e+002,8.926702e+001
3.685491e+002,1.039106e+002
3.704776e+002,1.163997e+002
3.724061e+002,1.259376e+002
3.743345e+002,1.324598e+002
3.762630e+002,1.368195e+002
3.781915e+002,1.404609e+002
3.801199e+002,1.399775e+002
3.820484e+002,1.336368e+002
3.839769e+002,1.180068e+002
3.859053e+002,1.043384e+002
3.878338e+002,9.371413e+001
3.897623e+002,8.515812e+001
3.916907e+002,7.651717e+001
3.936192e+002,6.572707e+001
3.955477e+002,5.853329e+001
3.974761e+002,5.729044e+001
3.994046e+002,6.335763e+001
4.013331e+002,6.816455e+001
4.032615e+002,7.230570e+001
4.051900e+002,7.493629e+001
4.071185e+002,7.513986e+001
4.090469e+002,7.203924e+001
4.109754e+002,6.938955e+001
4.129039e+002,6.828158e+001
4.148323e+002,6.849155e+001
4.167608e+002,6.852270e+001
4.186893e+002,6.727076e+001
4.206177e+002,6.675562e+001
4.225462e+002,6.851663e+001
4.244747e+002,7.309305e+001
4.264032e+002,7.595600e+001
4.283316e+002,7.470442e+001
4.302601e+002,7.179250e+001
4.321886e+002,7.145087e+001
4.341170e+002,7.474076e+001
4.360455e+002,7.848129e+001
4.379740e+002,8.228104e+001
4.399024e+002,8.611414e+001
4.418309e+002,8.821089e+001
4.437594e+002,8.681800e+001
4.456878e+002,8.478178e+001
4.476163e+002,8.392609e+001
4.495448e+002,8.415064e+001
4.514732e+002,8.546280e+001
4.534017e+002,8.994210e+001
4.553302e+002,9.557745e+001
4.572586e+002,9.758289e+001
4.591871e+002,9.135654e+001
4.611156e+002,8.583035e+001
4.630440e+002,8.469598e+001
4.649725e+002,8.781161e+001
4.669010e+002,8.893770e+001
4.688294e+002,8.419484e+001
4.707579e+002,7.896105e+001
4.726864e+002,7.750281e+001
4.746148e+002,8.459926e+001
4.765433e+002,8.992773e+001
4.784718e+002,8.992000e+001
4.804002e+002,8.763242e+001
4.823287e+002,9.094021e+001
4.842572e+002,1.054381e+002
4.861856e+002,1.188539e+002
4.881141e+002,1.263872e+002
4.900426e+002,1.267565e+002
4.919710e+002,1.247746e+002
4.938995e+002,1.182600e+002
4.958280e+002,1.108301e+002
4.977564e+002,1.060285e+002
4.996849e+002,1.051473e+002
5.016134e+002,1.030678e+002
5.035418e+002,9.687026e+001
5.054703e+002,8.805788e+001
5.073988e+002,8.312002e+001
5.093272e+002,8.405765e+001
5.112557e+002,8.626469e+001
5.131842e+002,8.756115e+001
5.151127e+002,8.797991e+001
5.170411e+002,9.091992e+001
5.189696e+002,9.722037e+001
5.208981e+002,1.060269e+002
5.228265e+002,1.179151e+002
5.247550e+002,1.376854e+002
5.266835e+002,1.510797e+002
5.286119e+002,1.535702e+002
5.305404e+002,1.484736e+002
5.324689e+002,1.414220e+002
5.343973e+002,1.306975e+002
5.363258e+002,1.201195e+002
5.382543e+002,1.105012e+002
5.401827e+002,1.018978e+002
5.421112e+002,9.451968e+001
5.440397e+002,8.833118e+001
5.459681e+002,8.349503e+001
5.478966e+002,8.003686e+001
5.498251e+002,7.821951e+001
5.517535e+002,7.707073e+001
5.536820e+002,7.712228e+001
5.556105e+002,7.755844e+001
5.575389e+002,7.664124e+001
5.594674e+002,7.251602e+001
5.613959e+002,7.086572e+001
5.633243e+002,7.595308e+001
5.652528e+002,8.578131e+001
5.671813e+002,9.157613e+001
5.691097e+002,8.942511e+001
5.710382e+002,8.624026e+001
5.729667e+002,8.450887e+001
5.748951e+002,8.433920e+001
5.768236e+002,8.410804e+001
5.787521e+002,8.338002e+001
5.806805e+002,8.268986e+001
5.826090e+002,8.257517e+001
5.845375e+002,8.384560e+001
5.864659e+002,8.405011e+001
5.883944e+002,8.126973e+001
5.903229e+002,7.765154e+001
5.922513e+002,7.757512e+001
5.941798e+002,8.293434e+001
5.961083e+002,8.785898e+001
5.980367e+002,9.043658e+001
5.999652e+002,9.088834e+001
6.018937e+002,9.042037e+001
6.038221e+002,8.789902e+001
6.057506e+002,8.548798e+001
6.076791e+002,8.444517e+001
6.096075e+002,8.476251e+001
6.115360e+002,8.412697e+001
6.134645e+002,8.000358e+001
6.153929e+002,7.645723e+001
6.173214e+002,7.675974e+001
6.192499e+002,8.429626e+001
6.211783e+002,8.940136e+001
6.231068e+002,9.070122e+001
6.250353e+002,8.960546e+001
6.269637e+002,8.815251e+001
6.288922e+002,8.603751e+001
6.308207e+002,8.438345e+001
6.327491e+002,8.321874e+001
6.346776e+002,8.264243e+001
6.366061e+002,8.344804e+001
6.385345e+002,8.672462e+001
6.404630e+002,9.018474e+001
6.423915e+002,9.405281e+001
6.443199e+002,9.793290e+001
6.462484e+002,9.882269e+001
6.481769e+002,9.349420e+001
6.501053e+002,8.807317e+001
6.520338e+002,8.608006e+001
6.539623e+002,8.918138e+001
6.558907e+002,9.111635e+001
6.578192e+002,9.028278e+001
6.597477e+002,8.920634e+001
6.616761e+002,9.106825e+001
6.636046e+002,9.685490e+001
6.655331e+002,1.001966e+002
6.674615e+002,9.713622e+001
6.693900e+002,9.141758e+001
6.713185e+002,8.776241e+001
6.732469e+002,8.785279e+001
6.751754e+002,8.829216e+001
6.771039e+002,8.757526e+001
6.790323e+002,8.712396e+001
6.809608e+002,9.074824e+001
6.828893e+002,1.019954e+002
6.848177e+002,1.112446e+002
6.867462e+002,1.142252e+002
6.886747e+002,1.112383e+002
6.906031e+002,1.088505e+002
6.925316e+002,1.056721e+002
6.944601e+002,1.043173e+002
6.963885e+002,1.079298e+002
6.983170e+002,1.160276e+002
7.002455e+002,1.197802e+002
7.021740e+002,1.158800e+002
7.041024e+002,1.094573e+002
7.060309e+002,1.028314e+002
7.079594e+002,9.479068e+001
7.098878e+002,9.071980e+001
7.118163e+002,9.372330e+001
7.137448e+002,9.845017e+001
7.156732e+002,1.003855e+002
7.176017e+002,9.966112e+001
7.195302e+002,9.722804e+001
7.214586e+002,9.116100e+001
7.233871e+002,8.461463e+001
7.253156e+002,8.070829e+001
7.272440e+002,7.994384e+001
7.291725e+002,8.128120e+001
7.311010e+002,8.598881e+001
7.330294e+002,9.233465e+001
7.349579e+002,9.713662e+001
7.368864e+002,9.978874e+001
7.388149e+002,1.024570e+002
7.407433e+002,1.052545e+002
7.426718e+002,1.084998e+002
7.446003e+002,1.132187e+002
7.465287e+002,1.213559e+002
7.484572e+002,1.286971e+002
7.503857e+002,1.359106e+002
7.523141e+002,1.419201e+002
7.542426e+002,1.427149e+002
7.561711e+002,1.354605e+002
7.580995e+002,1.276948e+002
7.600280e+002,1.222549e+002
7.619565e+002,1.187694e+002
7.638849e+002,1.156663e+002
7.658134e+002,1.128997e+002
7.677419e+002,1.104104e+002
7.696703e+002,1.071359e+002
7.715988e+002,1.032831e+002
7.735273e+002,1.037373e+002
7.754557e+002,1.130594e+002
7.773842e+002,1.216766e+002
7.793127e+002,1.222548e+002
7.812411e+002,1.156266e+002
7.831696e+002,1.167416e+002
7.850981e+002,1.313048e+002
7.870266e+002,1.504493e+002
7.889550e+002,1.742276e+002
7.908835e+002,2.049864e+002
7.928120e+002,2.222379e+002
7.947404e+002,2.200738e+002
7.966689e+002,2.091315e+002
7.985974e+002,1.931071e+002
8.005258e+002,1.718344e+002
8.024543e+002,1.529450e+002
8.043828e+002,1.374928e+002
8.063112e+002,1.248595e+002
8.082397e+002,1.146594e+002
8.101682e+002,1.066497e+002
8.120966e+002,1.030413e+002
8.140251e+002,1.078846e+002
8.159536e+002,1.140493e+002
8.178820e+002,1.166307e+002
8.198105e+002,1.156937e+002
8.217390e+002,1.146836e+002
8.236674e+002,1.143316e+002
8.255959e+002,1.141217e+002
8.275244e+002,1.136603e+002
8.294528e+002,1.125529e+002
8.313813e+002,1.122380e+002
8.333098e+002,1.131746e+002
8.352382e+002,1.144967e+002
8.371667e+002,1.142983e+002
8.390952e+002,1.122024e+002
8.410236e+002,1.147299e+002
8.429521e+002,1.200105e+002
8.448806e+002,1.334358e+002
8.468090e+002,1.584768e+002
8.487375e+002,1.958922e+002
8.506660e+002,2.445557e+002
8.525944e+002,3.284197e+002
8.545229e+002,4.054986e+002
8.564514e+002,4.420981e+002
8.583798e+002,4.388889e+002
8.603083e+002,4.142563e+002
8.622368e+002,3.538425e+002
8.641652e+002,2.867745e+002
8.660937e+002,2.302410e+002
8.680222e+002,1.842325e+002
8.699506e+002,1.502887e+002
8.718791e+002,1.332790e+002
8.738076e+002,1.231021e+002
8.757360e+002,1.133827e+002
8.776645e+002,1.036719e+002
8.795930e+002,9.964663e+001
8.815214e+002,1.074441e+002
8.834499e+002,1.158323e+002
8.853784e+002,1.172366e+002
8.873068e+002,1.115307e+002
8.892353e+002,1.085382e+002
8.911638e+002,1.095035e+002
8.930922e+002,1.134230e+002
8.950207e+002,1.201564e+002
8.969492e+002,1.299072e+002
8.988776e+002,1.415016e+002
9.008061e+002,1.548313e+002
9.027346e+002,1.698715e+002
9.046630e+002,1.898317e+002
9.065915e+002,2.127940e+002
9.085200e+002,2.278275e+002
9.104484e+002,2.313571e+002
9.123769e+002,2.298956e+002
9.143054e+002,2.270337e+002
9.162338e+002,2.226477e+002
9.181623e+002,2.110891e+002
9.200908e+002,1.812045e+002
9.220192e+002,1.567667e+002
9.239477e+002,1.488519e+002
9.258762e+002,1.530468e+002
9.278046e+002,1.525806e+002
9.297331e+002,1.427543e+002
9.316616e+002,1.359571e+002
9.335900e+002,1.407024e+002
9.355185e+002,1.520296e+002
9.374470e+002,1.557213e+002
9.393754e+002,1.439449e+002
9.413039e+002,1.344394e+002
9.432324e+002,1.313586e+002
9.451608e+002,1.319590e+002
9.470893e+002,1.302680e+002
9.490178e+002,1.243273e+002
9.509462e+002,1.216870e+002
9.528747e+002,1.234628e+002
9.548032e+002,1.300930e+002
9.567316e+002,1.442220e+002
9.586601e+002,1.708878e+002
9.605886e+002,1.875622e+002
9.625170e+002,1.876876e+002
9.644455e+002,1.786200e+002
9.663740e+002,1.649497e+002
9.683024e+002,1.422241e+002
9.702309e+002,1.266272e+002
9.721594e+002,1.229477e+002
9.740878e+002,1.227432e+002
9.760163e+002,1.199958e+002
9.779448e+002,1.149783e+002
9.798733e+002,1.119972e+002
9.818018e+002,1.117926e+002
9.837302e+002,1.137584e+002
9.856587e+002,1.194798e+002
9.875872e+002,1.291218e+002
9.895156e+002,1.322184e+002
9.914441e+002,1.236874e+002
9.933726e+002,1.146931e+002
9.953010e+002,1.087859e+002
9.972295e+002,1.051603e+002
9.991580e+002,1.000152e+002
1.001086e+003,9.037070e+001
1.003015e+003,8.526735e+001
1.004943e+003,9.290405e+001
1.006872e+003,1.055890e+002
1.008800e+003,1.102445e+002
1.010729e+003,1.011417e+002
1.012657e+003,9.741457e+001
1.014586e+003,1.075762e+002
1.016514e+003,1.212067e+002
1.018443e+003,1.266400e+002
1.020371e+003,1.195247e+002
1.022300e+003,1.145592e+002
1.024228e+003,1.138393e+002
1.026156e+003,1.140165e+002
1.028085e+003,1.121293e+002
1.030013e+003,1.085068e+002
1.031942e+003,1.072359e+002
1.033870e+003,1.106231e+002
1.035799e+003,1.142691e+002
1.037727e+003,1.164084e+002
1.039656e+003,1.170635e+002
1.041584e+003,1.168529e+002
1.043513e+003,1.124465e+002
1.045441e+003,1.110916e+002
1.047370e+003,1.163476e+002
1.049298e+003,1.255109e+002
1.051227e+003,1.321673e+002
1.053155e+003,1.356431e+002
1.055083e+003,1.390176e+002
1.057012e+003,1.441272e+002
1.058940e+003,1.488077e+002
1.060869e+003,1.500830e+002
1.062797e+003,1.468870e+002
1.064726e+003,1.469325e+002
1.066654e+003,1.533786e+002
1.068583e+003,1.617486e+002
1.070511e+003,1.703963e+002
1.072440e+003,1.794517e+002
1.074368e+003,1.863097e+002
1.076297e+003,1.932542e+002
1.078225e+003,1.959082e+002
1.080154e+003,1.916749e+002
1.082082e+003,1.820004e+002
1.084010e+003,1.708260e+002
1.085939e+003,1.563104e+002
1.087867e+003,1.451308e+002
1.089796e+003,1.417034e+002
1.091724e+003,1.416377e+002
1.093653e+003,1.400786e+002
1.095581e+003,1.363489e+002
1.097510e+003,1.330207e+002
1.099438e+003,1.295678e+002
1.101367e+003,1.272041e+002
1.103295e+003,1.271946e+002
1.105224e+003,1.298449e+002
1.107152e+003,1.317008e+002
1.109081e+003,1.319287e+002
1.111009e+003,1.324693e+002
1.112938e+003,1.333483e+002
1.114866e+003,1.351944e+002
1.116794e+003,1.403719e+002
1.118723e+003,1.518669e+002
1.120651e+003,1.582835e+002
1.122580e+003,1.520789e+002
1.124508e+003,1.411507e+002
1.126437e+003,1.331381e+002
1.128365e+003,1.287563e+002
1.130294e+003,1.252928e+002
1.132222e+003,1.215918e+002
1.134151e+003,1.197308e+002
1.136079e+003,1.219696e+002
1.138008e+003,1.279990e+002
1.139936e+003,1.319082e+002
1.141865e+003,1.326669e+002
1.143793e+003,1.328112e+002
1.145721e+003,1.330043e+002
1.147650e+003,1.330037e+002
1.149578e+003,1.325122e+002
1.151507e+003,1.314827e+002
1.153435e+003,1.300369e+002
1.155364e+003,1.275277e+002
1.157292e+003,1.252574e+002
1.159221e+003,1.241123e+002
1.161149e+003,1.242355e+002
1.163078e+003,1.247940e+002
1.165006e+003,1.273422e+002
1.166935e+003,1.286079e+002
1.168863e+003,1.267902e+002
1.170792e+003,1.229777e+002
1.172720e+003,1.198982e+002
1.174648e+003,1.167932e+002
1.176577e+003,1.160651e+002
1.178505e+003,1.200796e+002
1.180434e+003,1.253254e+002
1.182362e+003,1.296762e+002
1.184291e+003,1.330831e+002
1.186219e+003,1.328965e+002
1.188148e+003,1.246707e+002
1.190076e+003,1.185284e+002
1.192005e+003,1.201073e+002
1.193933e+003,1.270015e+002
1.195862e+003,1.310735e+002
1.197790e+003,1.293744e+002
1.199719e+003,1.295509e+002
1.201647e+003,1.351622e+002
1.203575e+003,1.408892e+002
1.205504e+003,1.412764e+002
1.207432e+003,1.354128e+002
1.209361e+003,1.306772e+002
1.211289e+003,1.271683e+002
1.213218e+003,1.248184e+002
1.215146e+003,1.241484e+002
1.217075e+003,1.245914e+002
1.219003e+003,1.250826e+002
1.220932e+003,1.257203e+002
1.222860e+003,1.261008e+002
1.224789e+003,1.245941e+002
1.226717e+003,1.240442e+002
1.228646e+003,1.266211e+002
1.230574e+003,1.325046e+002
1.232502e+003,1.393758e+002
1.234431e+003,1.493756e+002
1.236359e+003,1.576201e+002
1.238288e+003,1.627181e+002
1.240216e+003,1.651539e+002
1.242145e+003,1.656631e+002
1.244073e+003,1.633750e+002
1.246002e+003,1.616066e+002
1.247930e+003,1.613802e+002
1.249859e+003,1.611795e+002
1.251787e+003,1.596943e+002
1.253716e+003,1.573247e+002
1.255644e+003,1.561710e+002
1.257573e+003,1.579860e+002
1.259501e+003,1.572802e+002
1.261429e+003,1.482044e+002
1.263358e+003,1.375871e+002
1.265286e+003,1.335737e+002
1.267215e+003,1.372593e+002
1.269143e+003,1.404445e+002
1.271072e+003,1.412921e+002
1.273000e+003,1.423925e+002
1.274929e+003,1.439117e+002
1.276857e+003,1.463996e+002
1.278786e+003,1.516837e+002
1.280714e+003,1.646243e+002
1.282643e+003,1.734530e+002
1.284571e+003,1.719709e+002
1.286500e+003,1.711597e+002
1.288428e+003,1.783603e+002
1.290356e+003,1.938252e+002
1.292285e+003,2.178022e+002
1.294213e+003,2.565476e+002
1.296142e+003,2.922448e+002
1.298070e+003,3.205680e+002
1.299999e+003,3.409538e+002
1.301927e+003,3.539770e+002
1.303856e+003,3.596870e+002
1.305784e+003,3.549126e+002
1.307713e+003,3.347476e+002
1.309641e+003,3.095955e+002
1.311570e+003,2.783790e+002
1.313498e+003,2.463362e+002
1.315427e+003,2.280957e+002
1.317355e+003,2.303606e+002
1.319283e+003,2.319606e+002
1.321212e+003,2.280655e+002
1.323140e+003,2.257255e+002
1.325069e+003,2.284235e+002
1.326997e+003,2.362140e+002
1.328926e+003,2.499474e+002
1.330854e+003,2.689598e+002
1.332783e+003,2.941062e+002
1.334711e+003,3.339976e+002
1.336640e+003,3.741937e+002
1.338568e+003,4.033452e+002
1.340497e+003,4.215270e+002
1.342425e+003,4.239046e+002
1.344354e+003,4.056082e+002
1.346282e+003,3.798245e+002
1.348210e+003,3.470729e+002
1.350139e+003,3.120265e+002
1.352068e+003,2.782704e+002
1.353996e+003,2.453488e+002
1.355924e+003,2.212687e+002
1.357853e+003,2.108071e+002
1.359781e+003,2.044732e+002
1.361710e+003,1.994095e+002
1.363638e+003,1.954958e+002
1.365567e+003,1.925651e+002
1.367495e+003,1.907924e+002
1.369424e+003,1.896378e+002
1.371352e+003,1.897342e+002
1.373281e+003,1.898032e+002
1.375209e+003,1.876812e+002
1.377138e+003,1.850639e+002
1.379066e+003,1.873581e+002
1.380995e+003,1.941214e+002
1.382923e+003,2.066962e+002
1.384851e+003,2.246734e+002
1.386780e+003,2.489546e+002
1.388708e+003,2.750999e+002
1.390637e+003,3.077754e+002
1.392565e+003,3.685253e+002
1.394494e+003,4.730003e+002
1.396422e+003,5.555568e+002
1.398351e+003,6.076123e+002
1.400279e+003,6.257510e+002
1.402208e+003,5.962196e+002
1.404136e+003,5.303155e+002
1.406065e+003,4.642732e+002
1.407993e+003,3.972222e+002
1.409922e+003,3.387964e+002
1.411850e+003,2.915678e+002
1.413778e+003,2.545314e+002
1.415707e+003,2.273828e+002
1.417635e+003,2.100391e+002
1.419564e+003,2.004210e+002
1.421492e+003,1.986208e+002
1.423421e+003,2.047272e+002
1.425349e+003,2.237522e+002
1.427278e+003,2.458359e+002
1.429206e+003,2.657367e+002
1.431135e+003,2.831814e+002
1.433063e+003,2.895432e+002
1.434992e+003,2.774602e+002
1.436920e+003,2.637588e+002
1.438849e+003,2.461760e+002
1.440777e+003,2.311862e+002
1.442705e+003,2.262300e+002
1.444634e+003,2.307638e+002
1.446562e+003,2.305291e+002
1.448491e+003,2.213270e+002
1.450419e+003,2.151217e+002
1.452348e+003,2.189713e+002
1.454276e+003,2.225467e+002
1.456205e+003,2.160036e+002
1.458133e+003,2.009573e+002
1.460062e+003,1.871328e+002
1.461990e+003,1.734055e+002
1.463919e+003,1.645841e+002
1.465847e+003,1.651830e+002
1.467776e+003,1.685181e+002
1.469704e+003,1.705617e+002
1.471632e+003,1.714014e+002
1.473561e+003,1.710083e+002
1.475489e+003,1.690602e+002
1.477418e+003,1.669697e+002
1.479346e+003,1.633684e+002
1.481275e+003,1.615810e+002
1.483203e+003,1.659140e+002
1.485132e+003,1.738001e+002
1.487060e+003,1.742608e+002
1.488989e+003,1.630489e+002
1.490917e+003,1.579801e+002
1.492846e+003,1.693215e+002
1.494774e+003,1.806837e+002
1.496703e+003,1.829018e+002
1.498631e+003,1.792510e+002
1.500559e+003,1.795305e+002
1.502488e+003,1.860993e+002
1.504416e+003,1.898554e+002
1.506345e+003,1.885469e+002
1.508273e+003,1.860973e+002
1.510202e+003,1.832839e+002
1.512130e+003,1.805854e+002
1.514059e+003,1.788315e+002
1.515987e+003,1.777894e+002
1.517916e+003,1.786515e+002
1.519844e+003,1.840106e+002
1.521773e+003,1.879985e+002
1.523701e+003,1.888205e+002
1.525630e+003,1.872980e+002
1.527558e+003,1.834501e+002
1.529486e+003,1.766012e+002
1.531415e+003,1.733315e+002
1.533343e+003,1.755544e+002
1.535272e+003,1.784526e+002
1.537200e+003,1.832857e+002
1.539129e+003,1.866429e+002
1.541057e+003,1.834919e+002
1.542986e+003,1.751605e+002
1.544914e+003,1.730157e+002
1.546843e+003,1.802539e+002
1.548771e+003,1.855709e+002
1.550700e+003,1.848044e+002
1.552628e+003,1.833218e+002
1.554557e+003,1.848065e+002
1.556485e+003,1.880156e+002
1.558413e+003,1.886561e+002
1.560342e+003,1.854055e+002
1.562270e+003,1.883572e+002
1.564199e+003,2.072231e+002
1.566127e+003,2.210649e+002
1.568056e+003,2.146192e+002
1.569984e+003,2.001264e+002
1.571913e+003,1.930956e+002
1.573841e+003,1.934416e+002
1.575770e+003,1.979230e+002
1.577698e+003,2.095860e+002
1.579627e+003,2.175542e+002
1.581555e+003,2.138258e+002
1.583484e+003,2.084306e+002
1.585412e+003,2.104992e+002
1.587340e+003,2.179348e+002
1.589269e+003,2.216476e+002
1.591197e+003,2.203151e+002
1.593126e+003,2.189987e+002
1.595054e+003,2.183998e+002
1.596983e+003,2.186496e+002
1.598911e+003,2.211836e+002
1.600840e+003,2.240217e+002
1.602768e+003,2.220844e+002
1.604697e+003,2.146392e+002
1.606625e+003,2.122567e+002
1.608554e+003,2.203407e+002
1.610482e+003,2.258578e+002
1.612411e+003,2.206516e+002
1.614339e+003,2.141885e+002
1.616267e+003,2.164208e+002
1.618196e+003,2.259382e+002
1.620124e+003,2.292631e+002
1.622053e+003,2.232856e+002
1.623981e+003,2.196900e+002
1.625910e+003,2.217002e+002
1.627838e+003,2.254663e+002
1.629767e+003,2.299642e+002
1.631695e+003,2.345879e+002
1.633624e+003,2.377596e+002
1.635552e+003,2.389164e+002
1.637481e+003,2.426115e+002
1.639409e+003,2.513658e+002
1.641338e+003,2.590655e+002
1.643266e+003,2.622189e+002
1.645194e+003,2.657709e+002
1.647123e+003,2.765232e+002
1.649051e+003,2.919369e+002
1.650980e+003,2.969303e+002
1.652908e+003,2.884241e+002
1.654837e+003,2.779968e+002
1.656765e+003,2.631689e+002
1.658694e+003,2.509737e+002
1.660622e+003,2.468190e+002
1.662551e+003,2.448538e+002
1.664479e+003,2.370502e+002
1.666408e+003,2.231531e+002
1.668336e+003,2.123665e+002
1.670265e+003,2.063777e+002
1.672193e+003,2.004353e+002
1.674121e+003,1.930156e+002
1.676050e+003,1.862739e+002
1.677978e+003,1.799624e+002
1.679907e+003,1.754257e+002
1.681835e+003,1.768191e+002
1.683764e+003,1.864526e+002
1.685692e+003,1.898314e+002
1.687621e+003,1.814851e+002
1.689549e+003,1.748014e+002
1.691478e+003,1.737588e+002
1.693406e+003,1.741180e+002
1.695335e+003,1.728571e+002
1.697263e+003,1.707069e+002
1.699192e+003,1.701343e+002
1.701120e+003,1.719694e+002
1.703048e+003,1.723651e+002
1.704977e+003,1.691224e+002
1.706905e+003,1.669676e+002
1.708834e+003,1.691113e+002
1.710762e+003,1.708868e+002
1.712691e+003,1.664358e+002
1.714619e+003,1.576843e+002
1.716548e+003,1.554922e+002
1.718476e+003,1.626225e+002
1.720405e+003,1.673951e+002
1.722333e+003,1.663220e+002
1.724262e+003,1.662745e+002
1.726190e+003,1.724818e+002
1.728119e+003,1.779598e+002
1.730047e+003,1.740096e+002
1.731975e+003,1.623158e+002
1.733904e+003,1.564482e+002
1.735832e+003,1.581025e+002
1.737761e+003,1.597883e+002
1.739689e+003,1.610400e+002
1.741618e+003,1.616951e+002
1.743546e+003,1.603805e+002
1.745475e+003,1.595145e+002
1.747403e+003,1.627635e+002
1.749332e+003,1.691018e+002
1.751260e+003,1.701959e+002
1.753189e+003,1.640723e+002
1.755117e+003,1.610561e+002
1.757046e+003,1.643073e+002
1.758974e+003,1.683144e+002
1.760902e+003,1.734938e+002
1.762831e+003,1.766533e+002
1.764759e+003,1.720558e+002
1.766688e+003,1.625212e+002
1.768616e+003,1.627675e+002
1.770545e+003,1.757890e+002
1.772473e+003,1.801943e+002
1.774402e+003,1.655859e+002
1.776330e+003,1.548258e+002
1.778259e+003,1.615958e+002
1.780187e+003,1.714087e+002
1.782116e+003,1.721568e+002
1.784044e+003,1.670269e+002
1.785973e+003,1.653331e+002
1.787901e+003,1.676481e+002
1.789829e+003,1.672177e+002
1.791758e+003,1.617523e+002
1.793686e+003,1.569357e+002
1.795615e+003,1.549721e+002
1.797543e+003,1.540630e+002
1.799472e+003,1.521466e+002
1.801400e+003,1.506928e+002
1.803329e+003,1.531308e+002
1.805257e+003,1.593287e+002
1.807186e+003,1.645449e+002
1.809114e+003,1.690131e+002
1.811043e+003,1.703498e+002
1.812971e+003,1.645399e+002
1.814900e+003,1.594336e+002
1.816828e+003,1.600383e+002
1.818756e+003,1.635746e+002
1.820685e+003,1.672080e+002
1.822613e+003,1.706174e+002
1.824542e+003,1.707719e+002
1.826470e+003,1.667592e+002
1.828399e+003,1.624223e+002
1.830327e+003,1.567683e+002
1.832256e+003,1.529398e+002
1.834184e+003,1.524103e+002
1.836113e+003,1.539182e+002
1.838041e+003,1.584808e+002
1.839970e+003,1.641754e+002
1.841898e+003,1.626422e+002
1.843827e+003,1.499806e+002
1.845755e+003,1.447164e+002
1.847684e+003,1.527848e+002
1.849612e+003,1.594552e+002
1.851541e+003,1.610633e+002
1.853469e+003,1.615151e+002
1.855397e+003,1.632658e+002
1.857326e+003,1.652610e+002
1.859254e+003,1.651802e+002
1.861183e+003,1.629619e+002
1.863111e+003,1.638574e+002
1.865040e+003,1.720518e+002
1.866968e+003,1.742616e+002
1.868897e+003,1.631036e+002
1.870825e+003,1.546998e+002
1.872754e+003,1.544803e+002
1.874682e+003,1.583402e+002
1.876611e+003,1.649093e+002
1.878539e+003,1.725250e+002
1.880468e+003,1.755877e+002
1.882396e+003,1.737367e+002
1.884324e+003,1.738731e+002
1.886253e+003,1.780643e+002
1.888181e+003,1.794231e+002
1.890110e+003,1.745467e+002
1.892038e+003,1.689532e+002
1.893967e+003,1.656191e+002
1.895895e+003,1.627437e+002
1.897824e+003,1.565051e+002
1.899752e+003,1.493692e+002
1.901681e+003,1.512309e+002
1.903609e+003,1.631118e+002
1.905538e+003,1.682524e+002
1.907466e+003,1.607513e+002
1.909395e+003,1.565863e+002
1.911323e+003,1.647373e+002
1.913251e+003,1.726930e+002
1.915180e+003,1.722013e+002
1.917108e+003,1.685559e+002
1.919037e+003,1.685646e+002
1.920965e+003,1.716077e+002
1.922894e+003,1.743411e+002
1.924822e+003,1.773000e+002
1.926751e+003,1.779675e+002
1.928679e+003,1.753569e+002
1.930608e+003,1.718787e+002
1.932536e+003,1.658434e+002
1.934465e+003,1.615290e+002
1.936393e+003,1.634567e+002
1.938322e+003,1.670443e+002
1.940250e+003,1.646406e+002
1.942178e+003,1.576322e+002
1.944107e+003,1.568660e+002
1.946035e+003,1.642501e+002
1.947964e+003,1.699624e+002
1.949892e+003,1.725236e+002
1.951821e+003,1.755177e+002
1.953749e+003,1.827343e+002
1.955678e+003,1.869463e+002
1.957606e+003,1.818913e+002
1.959535e+003,1.742757e+002
1.961463e+003,1.722921e+002
1.963392e+003,1.737575e+002
1.965320e+003,1.704014e+002
1.967249e+003,1.618959e+002
1.969177e+003,1.607646e+002
1.971105e+003,1.715823e+002
1.973034e+003,1.790174e+002
1.974962e+003,1.768203e+002
1.976891e+003,1.738961e+002
1.978819e+003,1.749756e+002
1.980748e+003,1.765296e+002
1.982676e+003,1.733014e+002
1.984605e+003,1.685126e+002
1.986533e+003,1.718320e+002
1.988462e+003,1.840836e+002
1.990390e+003,1.887573e+002
1.992319e+003,1.788933e+002
1.994247e+003,1.737199e+002
1.996176e+003,1.783233e+002
1.998104e+003,1.807406e+002
2.000032e+003,1.750895e+002
2.001961e+003,1.694299e+002
2.003889e+003,1.690928e+002
2.005818e+003,1.717835e+002
2.007746e+003,1.743725e+002
2.009675e+003,1.769314e+002
2.011603e+003,1.810639e+002
2.013532e+003,1.871915e+002
2.015460e+003,1.886902e+002
2.017389e+003,1.835571e+002
2.019317e+003,1.783617e+002
2.021246e+003,1.733487e+002
2.023174e+003,1.710579e+002
2.025103e+003,1.745163e+002
2.027031e+003,1.794564e+002
2.028959e+003,1.829210e+002
2.030888e+003,1.849428e+002
2.032816e+003,1.856856e+002
2.034745e+003,1.851170e+002
2.036673e+003,1.824985e+002
2.038602e+003,1.764672e+002
2.040530e+003,1.725290e+002
2.042459e+003,1.723815e+002
2.044387e+003,1.719560e+002
2.046316e+003,1.696042e+002
2.048244e+003,1.681168e+002
2.050173e+003,1.692460e+002
2.052101e+003,1.713373e+002
2.054030e+003,1.714529e+002
2.055958e+003,1.718319e+002
2.057886e+003,1.806840e+002
2.059815e+003,1.963414e+002
2.061743e+003,1.996872e+002
2.063672e+003,1.883076e+002
2.065600e+003,1.784245e+002
2.067529e+003,1.712534e+002
2.069457e+003,1.688425e+002
2.071386e+003,1.760934e+002
2.073314e+003,1.821987e+002
2.075243e+003,1.796427e+002
2.077171e+003,1.758849e+002
2.079100e+003,1.783755e+002
2.081028e+003,1.841536e+002
2.082957e+003,1.871974e+002
2.084885e+003,1.877908e+002
2.086813e+003,1.900826e+002
2.088742e+003,1.959329e+002
2.090670e+003,1.973660e+002
2.092599e+003,1.903857e+002
2.094527e+003,1.869592e+002
2.096456e+003,1.926075e+002
2.098384e+003,1.964933e+002
2.100313e+003,1.926210e+002
2.102241e+003,1.882074e+002
2.104170e+003,1.898138e+002
2.106098e+003,1.922969e+002
2.108027e+003,1.868999e+002
2.109955e+003,1.772121e+002
2.111884e+003,1.750820e+002
2.113812e+003,1.805839e+002
2.115740e+003,1.833582e+002
2.117669e+003,1.823077e+002
2.119597e+003,1.803764e+002
2.121526e+003,1.737091e+002
2.123454e+003,1.726424e+002
2.125383e+003,1.863981e+002
2.127311e+003,1.972159e+002
2.129240e+003,1.943951e+002
2.131168e+003,1.868129e+002
2.133097e+003,1.805129e+002
2.135025e+003,1.759224e+002
2.136954e+003,1.743758e+002
2.138882e+003,1.753392e+002
2.140811e+003,1.759157e+002
2.142739e+003,1.761059e+002
2.144667e+003,1.778424e+002
2.146596e+003,1.817180e+002
2.148524e+003,1.852229e+002
2.150453e+003,1.877038e+002
2.152381e+003,1.900141e+002
2.154310e+003,1.940802e+002
2.156238e+003,1.958116e+002
2.158167e+003,1.911425e+002
2.160095e+003,1.852516e+002
2.162024e+003,1.825999e+002
2.163952e+003,1.820925e+002
2.165881e+003,1.824899e+002
2.167809e+003,1.834003e+002
2.169738e+003,1.822264e+002
2.171666e+003,1.788703e+002
2.173594e+003,1.754846e+002
2.175523e+003,1.712569e+002
2.177451e+003,1.733463e+002
2.179380e+003,1.868406e+002
2.181308e+003,1.955443e+002
2.183237e+003,1.907631e+002
2.185165e+003,1.863055e+002
2.187094e+003,1.875229e+002
2.189022e+003,1.919226e+002
2.190951e+003,2.015134e+002
2.192879e+003,2.102877e+002
2.194808e+003,2.097071e+002
2.196736e+003,2.021892e+002
2.198665e+003,1.929361e+002
2.200593e+003,1.821127e+002
2.202521e+003,1.784577e+002
2.204450e+003,1.826437e+002
2.206378e+003,1.863048e+002
2.208307e+003,1.896276e+002
2.210235e+003,1.877813e+002
2.212164e+003,1.751168e+002
2.214092e+003,1.684663e+002
2.216021e+003,1.794707e+002
2.217949e+003,1.897177e+002
2.219878e+003,1.887639e+002
2.221806e+003,1.858968e+002
2.223735e+003,1.890197e+002
2.225663e+003,1.939356e+002
2.227592e+003,1.945543e+002
2.229520e+003,1.925999e+002
2.231448e+003,1.936893e+002
2.233377e+003,1.972327e+002
2.235305e+003,1.960337e+002
2.237234e+003,1.899141e+002
2.239162e+003,1.885677e+002
2.241091e+003,1.942173e+002
2.243019e+003,1.969030e+002
2.244948e+003,1.937939e+002
2.246876e+003,1.899289e+002
2.248805e+003,1.836564e+002
2.250733e+003,1.808268e+002
2.252662e+003,1.846873e+002
2.254590e+003,1.913383e+002
2.256519e+003,2.031008e+002
2.258447e+003,2.119958e+002
2.260375e+003,2.060596e+002
2.262304e+003,1.945667e+002
2.264232e+003,1.953538e+002
2.266161e+003,2.033843e+002
2.268089e+003,2.018214e+002
2.270018e+003,1.919026e+002
2.271946e+003,1.867568e+002
2.273875e+003,1.873475e+002
2.275803e+003,1.893274e+002
2.277732e+003,1.946788e+002
2.279660e+003,1.962013e+002
2.281589e+003,1.901110e+002
2.283517e+003,1.855414e+002
2.285446e+003,1.843312e+002
2.287374e+003,1.843046e+002
2.289302e+003,1.849712e+002
2.291231e+003,1.862956e+002
2.293159e+003,1.888682e+002
2.295088e+003,1.913526e+002
2.297016e+003,1.912457e+002
2.298945e+003,1.913767e+002
2.300873e+003,1.983791e+002
2.302802e+003,2.076832e+002
2.304730e+003,2.052126e+002
2.306659e+003,1.933620e+002
2.308587e+003,1.930694e+002
2.310516e+003,2.068258e+002
2.312444e+003,2.103425e+002
2.314373e+003,2.013490e+002
2.316301e+003,1.954348e+002
2.318229e+003,1.937990e+002
2.320158e+003,1.964131e+002
2.322086e+003,2.066498e+002
2.324015e+003,2.125818e+002
2.325943e+003,2.083016e+002
2.327872e+003,2.021922e+002
2.329800e+003,1.919232e+002
2.331729e+003,1.875629e+002
2.333657e+003,2.040634e+002
2.335586e+003,2.192495e+002
2.337514e+003,2.076685e+002
2.339443e+003,1.889727e+002
2.341371e+003,1.898061e+002
2.343300e+003,2.005689e+002
2.345228e+003,2.039318e+002
2.347156e+003,2.011540e+002
2.349085e+003,1.951989e+002
2.351013e+003,1.865437e+002
2.352942e+003,1.793755e+002
2.354870e+003,1.727363e+002
2.356799e+003,1.746117e+002
2.358727e+003,1.904527e+002
2.360656e+003,1.991257e+002
2.362584e+003,1.984533e+002
2.364513e+003,1.944360e+002
2.366441e+003,1.843691e+002
2.368370e+003,1.808176e+002
2.370298e+003,1.924337e+002
2.372227e+003,2.013141e+002
2.374155e+003,1.974168e+002
2.376083e+003,1.925975e+002
2.378012e+003,1.918378e+002
2.379940e+003,1.936653e+002
2.381869e+003,2.003958e+002
2.383797e+003,2.058403e+002
2.385726e+003,2.010322e+002
2.387654e+003,1.931816e+002
2.389583e+003,1.939786e+002
2.391511e+003,1.986652e+002
2.393440e+003,1.964181e+002
2.395368e+003,1.899290e+002
2.397297e+003,1.893575e+002
2.399225e+003,1.942196e+002
2.401154e+003,1.983403e+002
2.403082e+003,2.018759e+002
2.405010e+003,2.029441e+002
2.406939e+003,2.013992e+002
2.408867e+003,1.975575e+002
2.410796e+003,1.904987e+002
2.412724e+003,1.859984e+002
2.414653e+003,1.846160e+002
2.416581e+003,1.871732e+002
2.418510e+003,1.978315e+002
2.420438e+003,2.045181e+002
2.422367e+003,1.990067e+002
2.424295e+003,1.961555e+002
2.426224e+003,2.052679e+002
2.428152e+003,2.122422e+002
2.430081e+003,2.087256e+002
2.432009e+003,2.037474e+002
2.433938e+003,2.031905e+002
2.435866e+003,2.027107e+002
2.437794e+003,1.976547e+002
2.439723e+003,1.919678e+002
2.441651e+003,1.889566e+002
2.443580e+003,1.887733e+002
2.445508e+003,1.938703e+002
2.447437e+003,2.008692e+002
2.449365e+003,2.016894e+002
2.451294e+003,1.979263e+002
2.453222e+003,1.959285e+002
2.455151e+003,1.950113e+002
2.457079e+003,1.903289e+002
2.459008e+003,1.826410e+002
2.460936e+003,1.822146e+002
2.462865e+003,1.905452e+002
2.464793e+003,1.970166e+002
2.466721e+003,2.016744e+002
2.468650e+003,2.041927e+002
2.470578e+003,2.043365e+002
2.472507e+003,2.021414e+002
2.474435e+003,1.959277e+002
2.476364e+003,1.950105e+002
2.478292e+003,2.041998e+002
2.480221e+003,2.097073e+002
2.482149e+003,2.053789e+002
2.484078e+003,2.014551e+002
2.486006e+003,1.985588e+002
2.487935e+003,1.991104e+002
2.489863e+003,2.092828e+002
2.491792e+003,2.149876e+002
2.493720e+003,2.070163e+002
2.495648e+003,1.994445e+002
2.497577e+003,2.020901e+002
2.499505e+003,2.049517e+002
2.501434e+003,1.999512e+002
2.503362e+003,1.942094e+002
2.505291e+003,1.937888e+002
2.507219e+003,1.955539e+002
2.509148e+003,1.969211e+002
2.511076e+003,1.980946e+002
2.513005e+003,1.986300e+002
2.514933e+003,1.996125e+002
2.516862e+003,2.050058e+002
2.518790e+003,2.104386e+002
2.520719e+003,2.047740e+002
2.522647e+003,1.937556e+002
2.524575e+003,1.939795e+002
2.526504e+003,2.023264e+002
2.528432e+003,2.047839e+002
2.530361e+003,2.032350e+002
2.532289e+003,2.114624e+002
2.534218e+003,2.266091e+002
2.536146e+003,2.281791e+002
2.538075e+003,2.157462e+002
2.540003e+003,2.056209e+002
2.541932e+003,1.973838e+002
2.543860e+003,1.992372e+002
2.545789e+003,2.148339e+002
2.547717e+003,2.138246e+002
2.549646e+003,1.925627e+002
2.551574e+003,1.872861e+002
2.553502e+003,2.049486e+002
2.555431e+003,2.125841e+002
2.557359e+003,1.998468e+002
2.559288e+003,1.939407e+002
2.561216e+003,2.010509e+002
2.563145e+003,2.083869e+002
2.565073e+003,2.172113e+002
2.567002e+003,2.201991e+002
2.568930e+003,2.136636e+002
2.570859e+003,2.092327e+002
2.572787e+003,2.121469e+002
2.574716e+003,2.125995e+002
2.576644e+003,2.030808e+002
2.578573e+003,1.984639e+002
2.580501e+003,2.051100e+002
2.582429e+003,2.133429e+002
2.584358e+003,2.245254e+002
2.586287e+003,2.293176e+002
2.588215e+003,2.204532e+002
2.590144e+003,2.110457e+002
2.592072e+003,2.043564e+002
2.594000e+003,2.027869e+002
2.595929e+003,2.132660e+002
2.597857e+003,2.213392e+002
2.599786e+003,2.162390e+002
2.601714e+003,2.103607e+002
2.603643e+003,2.097072e+002
2.605571e+003,2.113350e+002
2.607500e+003,2.158376e+002
2.609428e+003,2.186882e+002
2.611357e+003,2.157442e+002
2.613285e+003,2.107475e+002
2.615214e+003,2.031833e+002
2.617142e+003,1.989944e+002
2.619071e+003,2.095985e+002
2.620999e+003,2.190307e+002
2.622927e+003,2.086184e+002
2.624856e+003,1.952983e+002
2.626784e+003,1.951754e+002
2.628713e+003,2.025336e+002
2.630641e+003,2.166169e+002
2.632570e+003,2.290962e+002
2.634498e+003,2.272318e+002
2.636427e+003,2.201603e+002
2.638355e+003,2.188245e+002
2.640284e+003,2.193737e+002
2.642212e+003,2.152306e+002
2.644141e+003,2.110038e+002
2.646069e+003,2.150210e+002
2.647998e+003,2.225000e+002
2.649926e+003,2.266841e+002
2.651854e+003,2.281440e+002
2.653783e+003,2.268615e+002
2.655711e+003,2.242754e+002
2.657640e+003,2.233700e+002
2.659568e+003,2.223761e+002
2.661497e+003,2.154856e+002
2.663425e+003,2.075801e+002
2.665354e+003,2.106076e+002
2.667282e+003,2.189229e+002
2.669211e+003,2.199123e+002
2.671139e+003,2.175299e+002
2.673068e+003,2.202200e+002
2.674996e+003,2.250313e+002
2.676925e+003,2.253499e+002
2.678853e+003,2.228772e+002
2.680781e+003,2.198874e+002
2.682710e+003,2.182813e+002
2.684638e+003,2.264053e+002
2.686567e+003,2.374279e+002
2.688495e+003,2.363444e+002
2.690424e+003,2.270047e+002
2.692352e+003,2.141218e+002
2.694281e+003,2.023409e+002
2.696209e+003,2.062136e+002
2.698138e+003,2.197937e+002
2.700066e+003,2.300994e+002
2.701995e+003,2.367951e+002
2.703923e+003,2.380613e+002
2.705852e+003,2.359328e+002
2.707780e+003,2.359478e+002
2.709708e+003,2.363177e+002
2.711637e+003,2.289811e+002
2.713565e+003,2.204207e+002
2.715494e+003,2.293598e+002
2.717422e+003,2.468948e+002
2.719351e+003,2.557590e+002
2.721279e+003,2.591566e+002
2.723208e+003,2.647406e+002
2.725136e+003,2.695684e+002
2.727065e+003,2.645604e+002
2.728993e+003,2.554708e+002
2.730922e+003,2.565177e+002
2.732850e+003,2.595936e+002
2.734779e+003,2.449601e+002
2.736707e+003,2.261205e+002
2.738635e+003,2.311493e+002
2.740564e+003,2.476202e+002
2.742492e+003,2.588342e+002
2.744421e+003,2.620586e+002
2.746349e+003,2.468370e+002
2.748278e+003,2.273177e+002
2.750206e+003,2.241938e+002
2.752135e+003,2.297458e+002
2.754063e+003,2.369575e+002
2.755992e+003,2.420189e+002
2.757920e+003,2.368469e+002
2.759849e+003,2.296394e+002
2.761777e+003,2.295054e+002
2.763706e+003,2.326094e+002
2.765634e+003,2.365253e+002
2.767563e+003,2.393778e+002
2.769491e+003,2.366079e+002
2.771419e+003,2.345138e+002
2.773348e+003,2.429964e+002
2.775276e+003,2.497546e+002
2.777205e+003,2.382532e+002
2.779133e+003,2.271201e+002
2.781062e+003,2.350993e+002
2.782990e+003,2.465116e+002
2.784919e+003,2.505657e+002
2.786847e+003,2.517504e+002
2.788776e+003,2.516126e+002
2.790704e+003,2.513021e+002
2.792633e+003,2.542587e+002
2.794561e+003,2.536380e+002
2.796490e+003,2.383001e+002
2.798418e+003,2.297634e+002
2.800346e+003,2.413769e+002
2.802275e+003,2.543534e+002
2.804203e+003,2.630481e+002
2.806132e+003,2.656338e+002
2.808060e+003,2.531718e+002
2.809989e+003,2.478053e+002
2.811917e+003,2.618947e+002
2.813846e+003,2.699863e+002
2.815774e+003,2.612794e+002
2.817703e+003,2.534480e+002
2.819631e+003,2.489470e+002
2.821560e+003,2.521428e+002
2.823488e+003,2.688752e+002
2.825417e+003,2.810691e+002
2.827345e+003,2.861814e+002
2.829273e+003,2.872001e+002
2.831202e+003,2.829902e+002
2.833130e+003,2.804090e+002
2.835059e+003,2.809612e+002
2.836987e+003,2.806758e+002
2.838916e+003,2.785544e+002
2.840844e+003,2.825106e+002
2.842773e+003,2.939484e+002
2.844701e+003,2.996296e+002
2.846630e+003,2.961065e+002
2.848558e+003,3.066871e+002
2.850487e+003,3.327519e+002
2.852415e+003,3.401292e+002
2.854344e+003,3.305803e+002
2.856272e+003,3.247128e+002
2.858200e+003,3.226738e+002
2.860129e+003,3.176044e+002
2.862057e+003,3.113790e+002
2.863986e+003,3.186750e+002
2.865914e+003,3.332758e+002
2.867843e+003,3.333112e+002
2.869771e+003,3.248747e+002
2.871700e+003,3.192703e+002
2.873628e+003,3.175077e+002
2.875557e+003,3.238958e+002
2.877485e+003,3.334403e+002
2.879414e+003,3.388888e+002
2.881342e+003,3.427040e+002
2.883271e+003,3.473639e+002
2.885199e+003,3.522024e+002
2.887127e+003,3.548863e+002
2.889056e+003,3.594989e+002
2.890984e+003,3.696386e+002
2.892913e+003,3.823333e+002
2.894841e+003,4.021268e+002
2.896770e+003,4.141927e+002
2.898698e+003,3.950573e+002
2.900627e+003,3.912787e+002
2.902555e+003,4.303264e+002
2.904484e+003,4.655006e+002
2.906412e+003,4.768375e+002
2.908341e+003,4.962116e+002
2.910269e+003,5.351812e+002
2.912198e+003,5.761788e+002
2.914126e+003,6.003668e+002
2.916054e+003,6.781239e+002
2.917983e+003,8.094347e+002
2.919911e+003,1.057963e+003
2.921840e+003,1.466139e+003
2.923768e+003,1.890270e+003
2.925697e+003,2.358980e+003
2.927625e+003,2.511022e+003
2.929554e+003,2.356460e+003
2.931482e+003,2.040755e+003
2.933411e+003,1.602879e+003
2.935339e+003,1.252014e+003
2.937268e+003,9.885215e+002
2.939196e+003,8.353720e+002
2.941125e+003,7.680602e+002
2.943053e+003,7.383332e+002
2.944981e+003,7.430530e+002
2.946910e+003,7.815242e+002
2.948838e+003,8.502708e+002
2.950767e+003,9.590069e+002
2.952695e+003,1.079429e+003
2.954624e+003,1.195412e+003
2.956552e+003,1.301593e+003
2.958481e+003,1.386734e+003
2.960409e+003,1.472769e+003
2.962338e+003,1.643220e+003
2.964266e+003,1.689963e+003
2.966195e+003,1.501226e+003
2.968123e+003,1.271356e+003
2.970052e+003,1.018908e+003
2.971980e+003,8.211417e+002
2.973908e+003,6.828009e+002
2.975837e+003,6.105707e+002
2.977765e+003,6.075515e+002
2.979694e+003,6.647283e+002
2.981622e+003,8.032914e+002
2.983551e+003,8.843624e+002
2.985479e+003,9.074657e+002
2.987408e+003,8.546847e+002
2.989336e+003,7.418670e+002
2.991265e+003,6.461194e+002
2.993193e+003,5.708508e+002
2.995122e+003,5.258026e+002
2.997050e+003,5.048471e+002
2.998979e+003,4.927623e+002
3.000907e+003,4.994509e+002
3.002835e+003,5.444069e+002
3.004764e+003,6.050090e+002
3.006692e+003,6.821149e+002
3.008621e+003,7.327606e+002
3.010549e+003,7.320380e+002
3.012478e+003,6.939505e+002
3.014406e+003,6.000472e+002
3.016335e+003,5.134009e+002
3.018263e+003,4.526767e+002
3.020192e+003,4.081437e+002
3.022120e+003,3.800336e+002
3.024049e+003,3.621970e+002
3.025977e+003,3.551123e+002
3.027906e+003,3.543649e+002
3.029834e+003,3.620577e+002
3.031762e+003,3.480030e+002
3.033691e+003,3.174135e+002
3.035619e+003,3.346010e+002
3.037548e+003,3.839727e+002
3.039476e+003,3.872877e+002
3.041405e+003,3.647286e+002
3.043333e+003,3.651265e+002
3.045262e+003,3.757207e+002
3.047190e+003,3.803901e+002
3.049119e+003,3.834292e+002
3.051047e+003,3.889259e+002
3.052976e+003,3.945626e+002
3.054904e+003,4.007825e+002
3.056833e+003,4.029946e+002
3.058761e+003,3.932385e+002
3.060689e+003,3.904916e+002
3.062618e+003,4.077666e+002
3.064546e+003,4.122111e+002
3.066475e+003,3.970222e+002
3.068403e+003,3.901094e+002
3.070332e+003,3.970696e+002
3.072260e+003,4.034035e+002
3.074189e+003,4.088123e+002
3.076117e+003,4.137923e+002
3.078046e+003,4.156819e+002
3.079974e+003,4.019977e+002
3.081903e+003,3.807636e+002
3.083831e+003,3.692096e+002
3.085760e+003,3.630918e+002
3.087688e+003,3.580068e+002
3.089616e+003,3.538810e+002
3.091545e+003,3.515548e+002
3.093473e+003,3.489543e+002
3.095402e+003,3.445531e+002
3.097330e+003,3.399979e+002
3.099259e+003,3.355163e+002
3.101187e+003,3.312191e+002
3.103116e+003,3.282321e+002
3.105044e+003,3.217771e+002
3.106973e+003,3.109699e+002
3.108901e+003,3.084538e+002
3.110830e+003,3.141578e+002
3.112758e+003,3.108768e+002
3.114687e+003,3.007005e+002
3.116615e+003,2.936307e+002
3.118543e+003,2.890786e+002
3.120472e+003,2.855034e+002
3.122400e+003,2.837956e+002
3.124329e+003,2.878568e+002
3.126257e+003,2.905074e+002
3.128186e+003,2.842747e+002
3.130114e+003,2.795476e+002
3.132043e+003,2.837127e+002
3.133971e+003,2.858250e+002
3.135900e+003,2.815119e+002
3.137828e+003,2.798478e+002
3.139757e+003,2.822046e+002
3.141685e+003,2.797090e+002
3.143614e+003,2.709795e+002
3.145542e+003,2.658391e+002
3.147470e+003,2.634719e+002
3.149399e+003,2.571355e+002
3.151327e+003,2.505195e+002
3.153256e+003,2.526344e+002
3.155184e+003,2.570780e+002
3.157113e+003,2.557433e+002
3.159041e+003,2.527782e+002
3.160970e+003,2.509527e+002
3.162898e+003,2.482675e+002
3.164827e+003,2.416530e+002
3.166755e+003,2.383706e+002
3.168684e+003,2.401779e+002
3.170612e+003,2.436966e+002
3.172541e+003,2.497878e+002
3.174469e+003,2.459974e+002
3.176397e+003,2.324592e+002
3.178326e+003,2.264186e+002
3.180254e+003,2.258245e+002
3.182183e+003,2.231034e+002
3.184111e+003,2.225372e+002
3.186040e+003,2.369627e+002
3.187968e+003,2.493861e+002
3.189897e+003,2.403908e+002
3.191825e+003,2.341343e+002
3.193754e+003,2.506835e+002
3.195682e+003,2.583577e+002
3.197611e+003,2.476059e+002
3.199539e+003,2.402980e+002
3.201468e+003,2.404171e+002
3.203396e+003,2.372945e+002
3.205324e+003,2.305239e+002
3.207253e+003,2.328517e+002
3.209181e+003,2.403793e+002
3.211110e+003,2.404571e+002
3.213038e+003,2.384938e+002
3.214967e+003,2.440199e+002
3.216895e+003,2.502966e+002
3.218824e+003,2.516924e+002
3.220752e+003,2.526703e+002
3.222681e+003,2.582907e+002
3.224609e+003,2.571816e+002
3.226538e+003,2.446293e+002
3.228466e+003,2.401023e+002
3.230395e+003,2.471042e+002
3.232323e+003,2.471985e+002
3.234251e+003,2.409770e+002
3.236180e+003,2.378721e+002
3.238108e+003,2.378816e+002
3.240037e+003,2.435214e+002
3.241965e+003,2.484473e+002
3.243894e+003,2.444543e+002
3.245822e+003,2.378763e+002
3.247751e+003,2.310062e+002
3.249679e+003,2.251937e+002
3.251608e+003,2.202339e+002
3.253536e+003,2.179425e+002
3.255465e+003,2.184964e+002
3.257393e+003,2.209632e+002
3.259322e+003,2.250506e+002
3.261250e+003,2.289147e+002
3.263178e+003,2.308663e+002
3.265107e+003,2.217979e+002
3.267035e+003,2.118760e+002
3.268964e+003,2.143318e+002
3.270892e+003,2.198992e+002
3.272821e+003,2.245082e+002
3.274749e+003,2.259356e+002
3.276678e+003,2.214020e+002
3.278606e+003,2.201750e+002
3.280535e+003,2.251859e+002
3.282463e+003,2.234536e+002
3.284392e+003,2.156191e+002
3.286320e+003,2.102752e+002
3.288249e+003,2.065413e+002
3.290177e+003,2.034138e+002
3.292105e+003,1.980992e+002
3.294034e+003,1.825427e+002
3.295962e+003,1.719147e+002
3.297891e+003,1.791695e+002
3.299819e+003,1.872519e+002
3.301748e+003,1.923282e+002
3.303676e+003,1.981130e+002
3.305605e+003,2.060624e+002
3.307533e+003,2.074713e+002
3.309462e+003,2.034041e+002
3.311390e+003,2.002968e+002
3.313319e+003,1.970627e+002
3.315247e+003,1.892040e+002
3.317176e+003,1.835456e+002
3.319104e+003,1.874913e+002
3.321032e+003,1.926754e+002
3.322961e+003,1.941510e+002
3.324889e+003,2.003608e+002
3.326818e+003,2.151447e+002
3.328746e+003,2.110838e+002
3.330675e+003,1.884069e+002
3.332603e+003,1.867891e+002
3.334532e+003,1.978440e+002
3.336460e+003,1.975182e+002
3.338389e+003,1.925918e+002
3.340317e+003,1.862501e+002
3.342246e+003,1.853329e+002
3.344174e+003,1.991703e+002
3.346103e+003,2.053132e+002
3.348031e+003,1.958048e+002
3.349959e+003,1.927485e+002
3.351888e+003,1.981670e+002
3.353816e+003,2.036735e+002
3.355745e+003,2.081399e+002
3.357673e+003,2.084955e+002
3.359602e+003,2.060138e+002
3.361530e+003,1.994378e+002
3.363459e+003,1.953186e+002
3.365387e+003,2.020509e+002
3.367316e+003,2.019061e+002
3.369244e+003,1.842086e+002
3.371173e+003,1.854846e+002
3.373101e+003,2.070323e+002
3.375030e+003,2.161585e+002
3.376958e+003,2.135408e+002
3.378886e+003,1.984534e+002
3.380815e+003,1.820918e+002
3.382743e+003,1.757336e+002
3.384672e+003,1.762703e+002
3.386600e+003,1.873989e+002
3.388529e+003,1.931338e+002
3.390457e+003,1.887906e+002
3.392386e+003,1.885487e+002
3.394314e+003,1.935787e+002
3.396243e+003,1.906140e+002
3.398171e+003,1.858998e+002
3.400100e+003,2.003943e+002
3.402028e+003,2.142509e+002
3.403957e+003,2.009642e+002
3.405885e+003,1.864463e+002
3.407813e+003,1.782152e+002
3.409742e+003,1.811176e+002
3.411670e+003,1.991705e+002
3.413599e+003,2.049169e+002
3.415527e+003,1.996624e+002
3.417456e+003,1.994754e+002
3.419384e+003,2.015629e+002
3.421313e+003,2.012178e+002
3.423241e+003,1.987781e+002
3.425170e+003,1.897892e+002
3.427098e+003,1.886317e+002
3.429027e+003,2.029643e+002
3.430955e+003,2.096798e+002
3.432884e+003,2.058868e+002
3.434812e+003,2.012239e+002
3.436740e+003,1.973370e+002
3.438669e+003,2.037576e+002
3.440597e+003,2.089529e+002
3.442526e+003,1.967758e+002
3.444454e+003,1.845131e+002
3.446383e+003,1.772753e+002
3.448311e+003,1.808281e+002
3.450240e+003,2.011710e+002
3.452168e+003,2.084767e+002
3.454097e+003,2.043622e+002
3.456025e+003,2.012632e+002
3.457954e+003,1.984974e+002
3.459882e+003,1.945401e+002
3.461811e+003,1.909222e+002
3.463739e+003,1.867517e+002
3.465667e+003,1.880405e+002
3.467596e+003,2.038847e+002
3.469524e+003,2.030041e+002
3.471453e+003,1.872574e+002
3.473381e+003,1.732663e+002
3.475310e+003,1.656660e+002
3.477238e+003,1.805241e+002
3.479167e+003,1.961237e+002
3.481095e+003,1.945283e+002
3.483024e+003,1.926173e+002
3.484952e+003,1.958814e+002
3.486881e+003,1.966270e+002
3.488809e+003,1.944886e+002
3.490738e+003,1.943252e+002
3.492666e+003,1.946228e+002
3.494594e+003,1.892645e+002
3.496523e+003,1.853863e+002
3.498451e+003,1.935899e+002
3.500380e+003,1.946566e+002
3.502308e+003,1.804913e+002
3.504237e+003,1.774884e+002
3.506165e+003,1.889397e+002
3.508094e+003,1.904887e+002
3.510022e+003,1.876924e+002
3.511951e+003,1.962230e+002
3.513879e+003,2.051542e+002
3.515808e+003,2.055336e+002
3.517736e+003,2.018994e+002
3.519665e+003,1.934465e+002
3.521593e+003,1.944897e+002
3.523521e+003,2.060488e+002
3.525450e+003,2.009970e+002
3.527378e+003,1.889342e+002
3.529307e+003,1.877071e+002
3.531235e+003,1.914387e+002
3.533164e+003,1.982722e+002
3.535092e+003,2.021865e+002
3.537021e+003,2.006104e+002
3.538949e+003,1.989863e+002
3.540878e+003,1.972336e+002
3.542806e+003,1.893033e+002
3.544735e+003,1.814312e+002
3.546663e+003,1.859882e+002
3.548592e+003,1.919157e+002
3.550520e+003,1.927860e+002
3.552448e+003,1.938843e+002
3.554377e+003,1.974604e+002
3.556305e+003,1.920559e+002
3.558234e+003,1.822609e+002
3.560162e+003,1.927858e+002
3.562091e+003,2.065842e+002
3.564019e+003,1.996952e+002
3.565948e+003,1.909589e+002
3.567876e+003,1.866163e+002
3.569805e+003,1.888048e+002
3.571733e+003,1.973848e+002
3.573662e+003,2.030994e+002
3.575590e+003,2.047723e+002
3.577519e+003,1.960689e+002
3.579447e+003,1.875765e+002
3.581376e+003,1.888324e+002
3.583304e+003,1.911172e+002
3.585233e+003,1.929661e+002
3.587161e+003,1.888025e+002
3.589090e+003,1.799558e+002
3.591018e+003,1.812186e+002
3.592947e+003,1.875911e+002
3.594875e+003,1.951592e+002
3.596803e+003,1.977069e+002
3.598732e+003,1.854240e+002
3.600660e+003,1.839810e+002
3.602589e+003,1.959699e+002
3.604517e+003,1.959584e+002
3.606446e+003,1.832731e+002
3.608374e+003,1.395961e+002
3.610303e+003,1.099718e+002
3.612231e+003,1.461282e+002
3.614160e+003,1.796988e+002
3.616088e+003,1.956787e+002
3.618017e+003,1.988001e+002
3.619945e+003,1.920386e+002
3.621874e+003,1.908128e+002
3.623802e+003,1.914715e+002
3.625730e+003,1.899405e+002
3.627659e+003,1.870339e+002
3.629587e+003,1.818227e+002
3.631516e+003,1.806972e+002
3.633444e+003,1.845018e+002
3.635373e+003,1.839800e+002
3.637301e+003,1.835546e+002
3.639230e+003,1.975748e+002
3.641158e+003,2.071171e+002
3.643087e+003,1.944330e+002
3.645015e+003,1.852709e+002
3.646944e+003,1.832934e+002
3.648872e+003,1.821208e+002
3.650801e+003,1.813817e+002
3.652729e+003,1.811079e+002
3.654657e+003,1.810652e+002
3.656586e+003,1.825137e+002
3.658514e+003,1.801726e+002
3.660443e+003,1.720742e+002
3.662371e+003,1.704519e+002
3.664300e+003,1.748779e+002
3.666228e+003,1.835092e+002
3.668157e+003,1.905345e+002
3.670085e+003,1.863260e+002
3.672014e+003,1.870499e+002
3.673942e+003,1.993107e+002
3.675871e+003,1.974545e+002
3.677799e+003,1.823671e+002
3.679728e+003,1.738698e+002
3.681656e+003,1.735752e+002
3.683584e+003,1.916705e+002
3.685513e+003,1.998763e+002
3.687441e+003,1.857835e+002
3.689370e+003,1.792109e+002
3.691298e+003,1.827481e+002
3.693227e+003,1.909116e+002
3.695155e+003,1.968069e+002
3.697084e+003,1.874887e+002
3.699012e+003,1.810196e+002
3.700941e+003,1.852700e+002
3.702869e+003,1.912874e+002
3.704798e+003,1.976651e+002
3.706726e+003,1.976449e+002
3.708655e+003,1.960428e+002
3.710583e+003,2.023812e+002
3.712511e+003,2.040170e+002
3.714440e+003,1.923034e+002
3.716368e+003,1.916830e+002
3.718297e+003,2.029841e+002
3.720225e+003,1.960746e+002
3.722154e+003,1.832245e+002
3.724082e+003,1.819567e+002
3.726011e+003,1.818370e+002
3.727939e+003,1.777905e+002
3.729868e+003,1.779997e+002
3.731796e+003,1.826957e+002
3.733725e+003,1.869007e+002
3.735653e+003,1.875535e+002
3.737582e+003,1.752475e+002
3.739510e+003,1.702519e+002
3.741438e+003,1.832876e+002
3.743367e+003,1.891042e+002
3.745295e+003,1.873812e+002
3.747224e+003,1.952455e+002
3.749152e+003,1.988229e+002
3.751081e+003,1.721255e+002
3.753009e+003,1.606064e+002
3.754938e+003,1.831661e+002
3.756866e+003,1.915594e+002
3.758795e+003,1.859128e+002
3.760723e+003,1.787041e+002
3.762652e+003,1.733111e+002
3.764580e+003,1.724262e+002
3.766509e+003,1.750753e+002
3.768437e+003,1.817545e+002
3.770365e+003,1.826109e+002
3.772294e+003,1.795116e+002
3.774222e+003,1.806044e+002
3.776151e+003,1.794810e+002
3.778079e+003,1.655368e+002
3.780008e+003,1.674749e+002
3.781936e+003,1.896763e+002
3.783865e+003,1.892095e+002
3.785793e+003,1.769165e+002
3.787722e+003,1.750988e+002
3.789650e+003,1.747537e+002
3.791579e+003,1.696337e+002
3.793507e+003,1.714933e+002
3.795436e+003,1.802811e+002
3.797364e+003,1.853069e+002
3.799292e+003,1.864693e+002
3.801221e+003,1.810892e+002
3.803149e+003,1.759969e+002
3.805078e+003,1.728494e+002
3.807006e+003,1.740224e+002
3.808935e+003,1.786810e+002
3.810863e+003,1.857583e+002
3.812792e+003,1.896370e+002
3.814720e+003,1.838878e+002
3.816649e+003,1.759370e+002
3.818577e+003,1.654685e+002
3.820506e+003,1.760948e+002
3.822434e+003,1.936985e+002
3.824363e+003,1.859301e+002
3.826291e+003,1.775610e+002
3.828219e+003,1.817773e+002
3.830148e+003,1.858796e+002
3.832076e+003,1.877049e+002
3.834005e+003,1.753665e+002
3.835933e+003,1.651285e+002
3.837862e+003,1.830731e+002
3.839790e+003,1.912146e+002
3.841719e+003,1.795571e+002
3.843647e+003,1.723905e+002
3.845576e+003,1.710452e+002
3.847504e+003,1.796408e+002
3.849433e+003,1.868831e+002
3.851361e+003,1.843810e+002
3.853290e+003,1.792717e+002
3.855218e+003,1.733538e+002
3.857146e+003,1.789518e+002
3.859075e+003,1.884428e+002
3.861003e+003,1.942848e+002
3.862932e+003,1.926159e+002
3.864860e+003,1.795826e+002
3.866789e+003,1.687095e+002
3.868717e+003,1.622536e+002
3.870646e+003,1.680699e+002
3.872574e+003,1.742963e+002
3.874503e+003,1.730242e+002
3.876431e+003,1.711383e+002
3.878360e+003,1.700318e+002
3.880288e+003,1.886879e+002
3.882217e+003,2.049782e+002
3.884145e+003,1.794334e+002
3.886073e+003,1.655417e+002
3.888002e+003,1.808767e+002
3.889930e+003,1.909490e+002
3.891859e+003,1.951073e+002
3.893787e+003,1.950829e+002
3.895716e+003,1.895335e+002
3.897644e+003,1.745359e+002
3.899573e+003,1.721146e+002
3.901501e+003,1.813599e+002
3.903430e+003,1.713183e+002
3.905358e+003,1.593598e+002
3.907287e+003,1.598951e+002
3.909215e+003,1.734886e+002
3.911144e+003,1.989592e+002
3.913072e+003,1.975947e+002
3.915000e+003,1.818548e+002
3.916929e+003,1.695470e+002
3.918857e+003,1.651011e+002
3.920786e+003,1.742116e+002
3.922714e+003,1.755079e+002
3.924643e+003,1.708286e+002
3.926571e+003,1.656890e+002
3.928500e+003,1.656329e+002
3.930428e+003,1.764212e+002
3.932357e+003,1.828161e+002
3.934285e+003,1.835416e+002
3.936214e+003,1.798881e+002
3.938142e+003,1.734387e+002
3.940071e+003,1.604316e+002
3.941999e+003,1.599048e+002
3.943927e+003,1.777579e+002
3.945856e+003,1.813931e+002
3.947784e+003,1.770371e+002
3.949713e+003,1.725561e+002
3.951641e+003,1.688866e+002
3.953570e+003,1.661203e+002
3.955498e+003,1.677981e+002
3.957427e+003,1.713406e+002
3.959355e+003,1.686101e+002
3.961284e+003,1.672558e+002
3.963212e+003,1.741118e+002
3.965141e+003,1.687052e+002
3.967069e+003,1.569383e+002
3.968998e+003,1.715471e+002
3.970926e+003,1.881620e+002
3.972854e+003,1.895106e+002
3.974783e+003,1.903256e+002
3.976711e+003,1.914245e+002
3.978640e+003,1.832643e+002
3.980568e+003,1.743997e+002
3.982497e+003,1.711409e+002
3.984425e+003,1.780174e+002
3.986354e+003,1.964865e+002
3.988282e+003,1.811366e+002
3.990211e+003,1.604689e+002
3.992139e+003,1.769943e+002
3.994068e+003,1.845652e+002
3.995996e+003,1.728757e+002
3.997925e+003,1.667841e+002
3.999853e+003,1.653670e+002
4.001781e+003,1.678501e+002
4.003710e+003,1.675871e+002
4.005638e+003,1.623009e+002
4.007567e+003,1.589526e+002
4.009495e+003,1.578858e+002
4.011424e+003,1.620860e+002
4.013352e+003,1.628614e+002
4.015281e+003,1.519314e+002
4.017209e+003,1.516371e+002
4.019138e+003,1.588085e+002
4.021066e+003,1.686015e+002
4.022995e+003,1.708542e+002
4.024923e+003,1.590751e+002
4.026852e+003,1.599312e+002
4.028780e+003,1.692239e+002
4.030708e+003,1.640504e+002
4.032637e+003,1.600667e+002
4.034565e+003,1.656485e+002
4.036494e+003,1.773312e+002
4.038422e+003,1.904355e+002
4.040351e+003,1.869078e+002
4.042279e+003,1.774468e+002
4.044208e+003,1.631883e+002
4.046136e+003,1.632566e+002
4.048065e+003,1.739214e+002
4.049993e+003,1.763744e+002
4.051922e+003,1.750285e+002
4.053850e+003,1.711797e+002
4.055779e+003,1.754973e+002
4.057707e+003,1.842001e+002
4.059635e+003,1.684788e+002
4.061564e+003,1.534990e+002
4.063492e+003,1.574291e+002
4.065421e+003,1.566052e+002
4.067349e+003,1.505066e+002
4.069278e+003,1.486571e+002
4.071206e+003,1.540676e+002
4.073135e+003,1.791320e+002
4.075063e+003,1.810990e+002
4.076992e+003,1.638503e+002
4.078920e+003,1.593249e+002
4.080849e+003,1.602516e+002
4.082777e+003,1.622191e+002
4.084706e+003,1.672485e+002
4.086634e+003,1.734261e+002
4.088563e+003,1.711066e+002
4.090491e+003,1.703639e+002
4.092419e+003,1.784650e+002
4.094348e+003,1.791489e+002
4.096276e+003,1.727848e+002
4.098205e+003,1.627839e+002
4.100133e+003,1.554620e+002
4.102062e+003,1.547438e+002
4.103990e+003,1.570884e+002
4.105919e+003,1.603720e+002
4.107847e+003,1.581947e+002
4.109776e+003,1.552789e+002
4.111704e+003,1.535494e+002
4.113633e+003,1.527599e+002
4.115561e+003,1.540929e+002
4.117490e+003,1.606407e+002
4.119418e+003,1.698882e+002
4.121347e+003,1.823882e+002
4.123275e+003,1.747467e+002
4.125204e+003,1.581155e+002
4.127132e+003,1.547324e+002
4.129061e+003,1.558867e+002
4.130989e+003,1.588271e+002
4.132917e+003,1.571230e+002
4.134846e+003,1.564408e+002
4.136774e+003,1.702451e+002
4.138703e+003,1.752167e+002
4.140631e+003,1.653485e+002
4.142560e+003,1.609936e+002
4.144488e+003,1.618284e+002
4.146417e+003,1.712812e+002
4.148345e+003,1.743832e+002
4.150273e+003,1.690611e+002
4.152202e+003,1.675095e+002
4.154130e+003,1.679937e+002
4.156059e+003,1.713268e+002
4.157987e+003,1.672116e+002
4.159916e+003,1.581917e+002
4.161844e+003,1.692760e+002
4.163773e+003,1.777068e+002
4.165701e+003,1.641059e+002
4.167630e+003,1.576459e+002
4.169558e+003,1.584499e+002
4.171487e+003,1.640545e+002
4.173415e+003,1.664176e+002
4.175344e+003,1.621244e+002
4.177272e+003,1.542234e+002
4.179201e+003,1.479897e+002
4.181129e+003,1.547931e+002
4.183058e+003,1.618696e+002
4.184986e+003,1.658073e+002
4.186915e+003,1.623929e+002
4.188843e+003,1.562735e+002
4.190771e+003,1.511859e+002
4.192700e+003,1.516426e+002
4.194628e+003,1.577248e+002
4.196557e+003,1.673298e+002
4.198485e+003,1.706814e+002
4.200414e+003,1.568635e+002
4.202342e+003,1.522259e+002
4.204271e+003,1.571872e+002
4.206199e+003,1.655910e+002
4.208127e+003,1.699507e+002
4.210056e+003,1.655098e+002
4.211984e+003,1.606008e+002
4.213913e+003,1.569381e+002
4.215841e+003,1.588586e+002
4.217770e+003,1.593536e+002
4.219698e+003,1.561506e+002
4.221627e+003,1.561848e+002
4.223555e+003,1.584247e+002
4.225484e+003,1.627970e+002
4.227412e+003,1.674001e+002
4.229341e+003,1.705716e+002
4.231269e+003,1.603227e+002
4.233198e+003,1.503033e+002
4.235126e+003,1.501323e+002
4.237055e+003,1.529899e+002
4.238983e+003,1.570061e+002
4.240912e+003,1.559975e+002
4.242840e+003,1.612062e+002
4.244769e+003,1.784668e+002
4.246697e+003,1.711845e+002
4.248625e+003,1.545442e+002
4.250554e+003,1.454241e+002
