1.159199e+002,5.671088e+002
1.178484e+002,6.386501e+002
1.197769e+002,6.893452e+002
1.217053e+002,7.171919e+002
1.236338e+002,7.480048e+002
1.255623e+002,7.898308e+002
1.274907e+002,8.310090e+002
1.294192e+002,8.627923e+002
1.313477e+002,8.817706e+002
1.332761e+002,8.928141e+002
1.352046e+002,9.022138e+002
1.371331e+002,9.124917e+002
1.390615e+002,8.946656e+002
1.409900e+002,8.215662e+002
1.429185e+002,7.175403e+002
1.448469e+002,6.252728e+002
1.467754e+002,5.483957e+002
1.487039e+002,4.806928e+002
1.506323e+002,4.227770e+002
1.525608e+002,3.751908e+002
1.544893e+002,3.313665e+002
1.564177e+002,2.891721e+002
1.583462e+002,2.495705e+002
1.602747e+002,2.174268e+002
1.622031e+002,1.934727e+002
1.641316e+002,1.747889e+002
1.660601e+002,1.590781e+002
1.679885e+002,1.461663e+002
1.699170e+002,1.358864e+002
1.718455e+002,1.286385e+002
1.737739e+002,1.243595e+002
1.757024e+002,1.191159e+002
1.776309e+002,1.108791e+002
1.795593e+002,1.027278e+002
1.814878e+002,9.723225e+001
1.834163e+002,9.409114e+001
1.853447e+002,9.383279e+001
1.872732e+002,9.634083e+001
1.892017e+002,1.014411e+002
1.911301e+002,1.106050e+002
1.930586e+002,1.287608e+002
1.949871e+002,1.498507e+002
1.969155e+002,1.659637e+002
1.988440e+002,1.812721e+002
2.007725e+002,1.891367e+002
2.027009e+002,1.849025e+002
2.046294e+002,1.682834e+002
2.065579e+002,1.515446e+002
2.084864e+002,1.367407e+002
2.104148e+002,1.229101e+002
2.123433e+002,1.078176e+002
2.142718e+002,8.845663e+001
2.162002e+002,7.128336e+001
2.181287e+002,5.904683e+001
2.200572e+002,5.373304e+001
2.219856e+002,4.865387e+001
2.239141e+002,4.287373e+001
2.258426e+002,3.697534e+001
2.277710e+002,3.213087e+001
2.296995e+002,2.872861e+001
2.316280e+002,2.609549e+001
2.335564e+002,2.386418e+001
2.354849e+002,2.231214e+001
2.374134e+002,2.083343e+001
2.393418e+002,1.876679e+001
2.412703e+002,1.679320e+001
2.431988e+002,1.634232e+001
2.451272e+002,2.003143e+001
2.470557e+002,2.336508e+001
2.489842e+002,2.375993e+001
2.509126e+002,1.920788e+001
2.528411e+002,1.590026e+001
2.547696e+002,1.544453e+001
2.566980e+002,1.692846e+001
2.586265e+002,1.816439e+001
2.605550e+002,1.912415e+001
2.624834e+002,1.975836e+001
2.644119e+002,1.992277e+001
2.663404e+002,1.955459e+001
2.682688e+002,1.909807e+001
2.701973e+002,1.876580e+001
2.721258e+002,1.847264e+001
2.740542e+002,1.771318e+001
2.759827e+002,1.538288e+001
2.779112e+002,1.341953e+001
2.798396e+002,1.318447e+001
2.817681e+002,1.488394e+001
2.836966e+002,1.653554e+001
2.856250e+002,1.726381e+001
2.875535e+002,1.743398e+001
2.894820e+002,1.872288e+001
2.914104e+002,2.248026e+001
2.933389e+002,2.605558e+001
2.952674e+002,2.779463e+001
2.971958e+002,2.705224e+001
2.991243e+002,2.766752e+001
3.010528e+002,3.120101e+001
3.029813e+002,3.660711e+001
3.049097e+002,4.071604e+001
3.068382e+002,4.462698e+001
3.087667e+002,4.606760e+001
3.106951e+002,4.336094e+001
3.126236e+002,3.445992e+001
3.145521e+002,2.805282e+001
3.164805e+002,2.624524e+001
3.184090e+002,2.729881e+001
3.203375e+002,2.742873e+001
3.222659e+002,2.634814e+001
3.241944e+002,2.478132e+001
3.261229e+002,2.291534e+001
3.280513e+002,2.033899e+001
3.299798e+002,1.860946e+001
3.319083e+002,1.726273e+001
3.338367e+002,1.695945e+001
3.357652e+002,1.847517e+001
3.376937e+002,2.282240e+001
3.396221e+002,2.733174e+001
3.415506e+002,3.105544e+001
3.434791e+002,3.373836e+001
3.454075e+002,3.673503e+001
3.473360e+002,4.067461e+001
3.492645e+002,4.456116e+001
3.511929e+002,4.783944e+001
3.531214e+002,5.112826e+001
3.550499e+002,5.243533e+001
3.569783e+002,5.088551e+001
3.589068e+002,4.645087e+001
3.608353e+002,4.214520e+001
3.627637e+002,3.714270e+001
3.646922e+002,3.296645e+001
3.666207e+002,3.060211e+001
3.685491e+002,3.138152e+001
3.704776e+002,3.116453e+001
3.724061e+002,2.881463e+001
3.743345e+002,2.490139e+001
3.762630e+002,2.152639e+001
3.781915e+002,1.802136e+001
3.801199e+002,1.590166e+001
3.820484e+002,1.602868e+001
3.839769e+002,1.996744e+001
3.859053e+002,2.234693e+001
3.878338e+002,2.207354e+001
3.897623e+002,2.030833e+001
3.916907e+002,1.890271e+001
3.936192e+002,1.763994e+001
3.955477e+002,1.713282e+001
3.974761e+002,1.771237e+001
3.994046e+002,1.965980e+001
4.013331e+002,2.112730e+001
4.032615e+002,2.195714e+001
4.051900e+002,2.244939e+001
4.071185e+002,2.287959e+001
4.090469e+002,2.331157e+001
4.109754e+002,2.354741e+001
4.129039e+002,2.345592e+001
4.148323e+002,2.310588e+001
4.167608e+002,2.292329e+001
4.186893e+002,2.287150e+001
4.206177e+002,2.298374e+001
4.225462e+002,2.365943e+001
4.244747e+002,2.521854e+001
4.264032e+002,2.525385e+001
4.283316e+002,2.115472e+001
4.302601e+002,1.588762e+001
4.321886e+002,1.484032e+001
4.341170e+002,2.031858e+001
4.360455e+002,2.569060e+001
4.379740e+002,2.814999e+001
4.399024e+002,2.804379e+001
4.418309e+002,2.956190e+001
4.437594e+002,3.143552e+001
4.456878e+002,3.590334e+001
4.476163e+002,4.557598e+001
4.495448e+002,6.122194e+001
4.514732e+002,7.792305e+001
4.534017e+002,9.929715e+001
4.553302e+002,1.211263e+002
4.572586e+002,1.326270e+002
4.591871e+002,1.282449e+002
4.611156e+002,1.186365e+002
4.630440e+002,1.038144e+002
4.649725e+002,8.399796e+001
4.669010e+002,6.772448e+001
4.688294e+002,5.797158e+001
4.707579e+002,5.123167e+001
4.726864e+002,4.475475e+001
4.746148e+002,3.708852e+001
4.765433e+002,3.158138e+001
4.784718e+002,2.951522e+001
4.804002e+002,2.995684e+001
4.823287e+002,3.015582e+001
4.842572e+002,2.987547e+001
4.861856e+002,2.955597e+001
4.881141e+002,2.959249e+001
4.900426e+002,3.040462e+001
4.919710e+002,2.997354e+001
4.938995e+002,2.672418e+001
4.958280e+002,2.322296e+001
4.977564e+002,2.174036e+001
4.996849e+002,2.271034e+001
5.016134e+002,2.435569e+001
5.035418e+002,2.610333e+001
5.054703e+002,2.807318e+001
5.073988e+002,3.090352e+001
5.093272e+002,3.608415e+001
5.112557e+002,4.059346e+001
5.131842e+002,4.302424e+001
5.151127e+002,4.355198e+001
5.170411e+002,4.372411e+001
5.189696e+002,4.479466e+001
5.208981e+002,4.502473e+001
5.228265e+002,4.255789e+001
5.247550e+002,3.549112e+001
5.266835e+002,2.960891e+001
5.286119e+002,2.606628e+001
5.305404e+002,2.422969e+001
5.324689e+002,2.301086e+001
5.343973e+002,2.285407e+001
5.363258e+002,2.279022e+001
5.382543e+002,2.282393e+001
5.401827e+002,2.295420e+001
5.421112e+002,2.200723e+001
5.440397e+002,1.836575e+001
5.459681e+002,1.493251e+001
5.478966e+002,1.353819e+001
5.498251e+002,1.492338e+001
5.517535e+002,1.593767e+001
5.536820e+002,1.596740e+001
5.556105e+002,1.550748e+001
5.575389e+002,1.529396e+001
5.594674e+002,1.518957e+001
5.613959e+002,1.552751e+001
5.633243e+002,1.700128e+001
5.652528e+002,1.921190e+001
5.671813e+002,2.026914e+001
5.691097e+002,1.884025e+001
5.710382e+002,1.732937e+001
5.729667e+002,1.645951e+001
5.748951e+002,1.624059e+001
5.768236e+002,1.696326e+001
5.787521e+002,1.943482e+001
5.806805e+002,2.240438e+001
5.826090e+002,2.487632e+001
5.845375e+002,2.650569e+001
5.864659e+002,2.824616e+001
5.883944e+002,3.007926e+001
5.903229e+002,3.210852e+001
5.922513e+002,3.467879e+001
5.941798e+002,3.848634e+001
5.961083e+002,4.146459e+001
5.980367e+002,4.242392e+001
5.999652e+002,4.161863e+001
6.018937e+002,4.170840e+001
6.038221e+002,4.142101e+001
6.057506e+002,4.307217e+001
6.076791e+002,5.007863e+001
6.096075e+002,6.250372e+001
6.115360e+002,6.930794e+001
6.134645e+002,6.565041e+001
6.153929e+002,5.793590e+001
6.173214e+002,5.077502e+001
6.192499e+002,4.446360e+001
6.211783e+002,3.828312e+001
6.231068e+002,3.123632e+001
6.250353e+002,2.464327e+001
6.269637e+002,2.051786e+001
6.288922e+002,1.921168e+001
6.308207e+002,1.914469e+001
6.327491e+002,2.069952e+001
6.346776e+002,2.329349e+001
6.366061e+002,2.439181e+001
6.385345e+002,2.233000e+001
6.404630e+002,2.040298e+001
6.423915e+002,1.974926e+001
6.443199e+002,2.025145e+001
6.462484e+002,2.064558e+001
6.481769e+002,2.048745e+001
6.501053e+002,2.057657e+001
6.520338e+002,2.139503e+001
6.539623e+002,2.330051e+001
6.558907e+002,2.496141e+001
6.578192e+002,2.605459e+001
6.597477e+002,2.709104e+001
6.616761e+002,2.855894e+001
6.636046e+002,3.047754e+001
6.655331e+002,3.255214e+001
6.674615e+002,3.529880e+001
6.693900e+002,3.797873e+001
6.713185e+002,3.957260e+001
6.732469e+002,3.948384e+001
6.751754e+002,3.890676e+001
6.771039e+002,3.766564e+001
6.790323e+002,3.599601e+001
6.809608e+002,3.456694e+001
6.828893e+002,3.354269e+001
6.848177e+002,3.246185e+001
6.867462e+002,3.091684e+001
6.886747e+002,2.894767e+001
6.906031e+002,2.773285e+001
6.925316e+002,2.887499e+001
6.944601e+002,2.923850e+001
6.963885e+002,2.665922e+001
6.983170e+002,2.138014e+001
7.002455e+002,1.776908e+001
7.021740e+002,1.686195e+001
7.041024e+002,1.729720e+001
7.060309e+002,1.843259e+001
7.079594e+002,2.066517e+001
7.098878e+002,2.228760e+001
7.118163e+002,2.327175e+001
7.137448e+002,2.367449e+001
7.156732e+002,2.334820e+001
7.176017e+002,2.221735e+001
7.195302e+002,2.116877e+001
7.214586e+002,1.912748e+001
7.233871e+002,1.795537e+001
7.253156e+002,1.952761e+001
7.272440e+002,2.414502e+001
7.291725e+002,3.138695e+001
7.311010e+002,4.359602e+001
7.330294e+002,5.777031e+001
7.349579e+002,6.909959e+001
7.368864e+002,7.879416e+001
7.388149e+002,8.340915e+001
7.407433e+002,7.959542e+001
7.426718e+002,6.998567e+001
7.446003e+002,5.971004e+001
7.465287e+002,4.630561e+001
7.484572e+002,3.536375e+001
7.503857e+002,2.860275e+001
7.523141e+002,2.546306e+001
7.542426e+002,2.282291e+001
7.561711e+002,1.991544e+001
7.580995e+002,1.864047e+001
7.600280e+002,2.067068e+001
7.619565e+002,2.530178e+001
7.638849e+002,2.891885e+001
7.658134e+002,3.029856e+001
7.677419e+002,3.159587e+001
7.696703e+002,3.326101e+001
7.715988e+002,3.534364e+001
7.735273e+002,3.823646e+001
7.754557e+002,4.480759e+001
7.773842e+002,4.900839e+001
7.793127e+002,4.658986e+001
7.812411e+002,3.812817e+001
7.831696e+002,3.154916e+001
7.850981e+002,2.817170e+001
7.870266e+002,2.647382e+001
7.889550e+002,2.640668e+001
7.908835e+002,2.840321e+001
7.928120e+002,2.933048e+001
7.947404e+002,2.646474e+001
7.966689e+002,2.482063e+001
7.985974e+002,2.709841e+001
8.005258e+002,3.319752e+001
8.024543e+002,4.164871e+001
8.043828e+002,5.526921e+001
8.063112e+002,6.883383e+001
8.082397e+002,7.933304e+001
8.101682e+002,8.572673e+001
8.120966e+002,9.182515e+001
8.140251e+002,9.826770e+001
8.159536e+002,1.038761e+002
8.178820e+002,1.082180e+002
8.198105e+002,1.114777e+002
8.217390e+002,1.126035e+002
8.236674e+002,1.124696e+002
8.255959e+002,1.092927e+002
8.275244e+002,1.009927e+002
8.294528e+002,8.411752e+001
8.313813e+002,7.083452e+001
8.333098e+002,6.043336e+001
8.352382e+002,5.382110e+001
8.371667e+002,5.314558e+001
8.390952e+002,5.844124e+001
8.410236e+002,6.300514e+001
8.429521e+002,6.690343e+001
8.448806e+002,6.840467e+001
8.468090e+002,6.579414e+001
8.487375e+002,5.672008e+001
8.506660e+002,4.960229e+001
8.525944e+002,4.568509e+001
8.545229e+002,4.278244e+001
8.564514e+002,3.924179e+001
8.583798e+002,3.502992e+001
8.603083e+002,3.111564e+001
8.622368e+002,2.704644e+001
8.641652e+002,2.393005e+001
8.660937e+002,2.284199e+001
8.680222e+002,2.449781e+001
8.699506e+002,2.481492e+001
8.718791e+002,2.178086e+001
8.738076e+002,1.884698e+001
8.757360e+002,1.865271e+001
8.776645e+002,2.164568e+001
8.795930e+002,2.359501e+001
8.815214e+002,2.379225e+001
8.834499e+002,2.327558e+001
8.853784e+002,2.228094e+001
8.873068e+002,2.077070e+001
8.892353e+002,2.037197e+001
8.911638e+002,2.186082e+001
8.930922e+002,2.401496e+001
8.950207e+002,2.612925e+001
8.969492e+002,2.808519e+001
8.988776e+002,3.139278e+001
9.008061e+002,3.830781e+001
9.027346e+002,4.439045e+001
9.046630e+002,4.794081e+001
9.065915e+002,4.912526e+001
9.085200e+002,4.708849e+001
9.104484e+002,3.844104e+001
9.123769e+002,3.092687e+001
9.143054e+002,2.820784e+001
9.162338e+002,3.002225e+001
9.181623e+002,3.063043e+001
9.200908e+002,2.890199e+001
9.220192e+002,2.733304e+001
9.239477e+002,2.654061e+001
9.258762e+002,2.652831e+001
9.278046e+002,2.708330e+001
9.297331e+002,2.796857e+001
9.316616e+002,2.989400e+001
9.335900e+002,3.395980e+001
9.355185e+002,3.924563e+001
9.374470e+002,4.312400e+001
9.393754e+002,4.418913e+001
9.413039e+002,4.559868e+001
9.432324e+002,4.987451e+001
9.451608e+002,5.439059e+001
9.470893e+002,5.328204e+001
9.490178e+002,4.480579e+001
9.509462e+002,3.662121e+001
9.528747e+002,2.928438e+001
9.548032e+002,2.389156e+001
9.567316e+002,2.214845e+001
9.586601e+002,2.546237e+001
9.605886e+002,2.761457e+001
9.625170e+002,2.653961e+001
9.644455e+002,2.455035e+001
9.663740e+002,2.318705e+001
9.683024e+002,2.135536e+001
9.702309e+002,2.348576e+001
9.721594e+002,3.094961e+001
9.740878e+002,4.136541e+001
9.760163e+002,5.239146e+001
9.779448e+002,6.412815e+001
9.798733e+002,8.067739e+001
9.818018e+002,9.951682e+001
9.837302e+002,1.275864e+002
9.856587e+002,1.716215e+002
9.875872e+002,2.318489e+002
9.895156e+002,2.842234e+002
9.914441e+002,3.447268e+002
9.933726e+002,3.801787e+002
9.953010e+002,3.746501e+002
9.972295e+002,3.339816e+002
9.991580e+002,2.819900e+002
1.001086e+003,2.084798e+002
1.003015e+003,1.448971e+002
1.004943e+003,1.032734e+002
1.006872e+003,7.799295e+001
1.008800e+003,6.232553e+001
1.010729e+003,5.848267e+001
1.012657e+003,5.923011e+001
1.014586e+003,6.351139e+001
1.016514e+003,7.102087e+001
1.018443e+003,8.233804e+001
1.020371e+003,1.010971e+002
1.022300e+003,1.144534e+002
1.024228e+003,1.228467e+002
1.026156e+003,1.251358e+002
1.028085e+003,1.186645e+002
1.030013e+003,1.043475e+002
1.031942e+003,8.914796e+001
1.033870e+003,7.212728e+001
1.035799e+003,5.673438e+001
1.037727e+003,4.413085e+001
1.039656e+003,3.432380e+001
1.041584e+003,2.696347e+001
1.043513e+003,2.247581e+001
1.045441e+003,2.000991e+001
1.047370e+003,2.021611e+001
1.049298e+003,2.228826e+001
1.051227e+003,2.450948e+001
1.053155e+003,2.720670e+001
1.055083e+003,2.918903e+001
1.057012e+003,2.943167e+001
1.058940e+003,2.925410e+001
1.060869e+003,3.043134e+001
1.062797e+003,3.352151e+001
1.064726e+003,3.434790e+001
1.066654e+003,2.936565e+001
1.068583e+003,2.433923e+001
1.070511e+003,2.287544e+001
1.072440e+003,2.544729e+001
1.074368e+003,2.632290e+001
1.076297e+003,2.455159e+001
1.078225e+003,2.239021e+001
1.080154e+003,1.987741e+001
1.082082e+003,1.762527e+001
1.084010e+003,1.741630e+001
1.085939e+003,2.029562e+001
1.087867e+003,2.251025e+001
1.089796e+003,2.159156e+001
1.091724e+003,1.996723e+001
1.093653e+003,2.082704e+001
1.095581e+003,2.547162e+001
1.097510e+003,2.828145e+001
1.099438e+003,2.749920e+001
1.101367e+003,2.577745e+001
1.103295e+003,2.450519e+001
1.105224e+003,2.369271e+001
1.107152e+003,2.377854e+001
1.109081e+003,2.553562e+001
1.111009e+003,2.731945e+001
1.112938e+003,2.872940e+001
1.114866e+003,2.972276e+001
1.116794e+003,3.016051e+001
1.118723e+003,2.988249e+001
1.120651e+003,2.943864e+001
1.122580e+003,2.863642e+001
1.124508e+003,2.794210e+001
1.126437e+003,2.795568e+001
1.128365e+003,2.904874e+001
1.130294e+003,2.968304e+001
1.132222e+003,2.864231e+001
1.134151e+003,2.826183e+001
1.136079e+003,3.001905e+001
1.138008e+003,3.384850e+001
1.139936e+003,3.791379e+001
1.141865e+003,4.342173e+001
1.143793e+003,4.733429e+001
1.145721e+003,4.689104e+001
1.147650e+003,4.483198e+001
1.149578e+003,4.581210e+001
1.151507e+003,5.089953e+001
1.153435e+003,5.434921e+001
1.155364e+003,5.408688e+001
1.157292e+003,5.226045e+001
1.159221e+003,4.997301e+001
1.161149e+003,4.718284e+001
1.163078e+003,4.445409e+001
1.165006e+003,3.989817e+001
1.166935e+003,3.757749e+001
1.168863e+003,3.992604e+001
1.170792e+003,4.540377e+001
1.172720e+003,4.999055e+001
1.174648e+003,5.414322e+001
1.176577e+003,5.642363e+001
1.178505e+003,5.507058e+001
1.180434e+003,5.271757e+001
1.182362e+003,5.186490e+001
1.184291e+003,5.242497e+001
1.186219e+003,5.161763e+001
1.188148e+003,4.606498e+001
1.190076e+003,4.340947e+001
1.192005e+003,4.728712e+001
1.193933e+003,5.637006e+001
1.195862e+003,6.628163e+001
1.197790e+003,7.752041e+001
1.199719e+003,8.885643e+001
1.201647e+003,1.034500e+002
1.203575e+003,1.158088e+002
1.205504e+003,1.205694e+002
1.207432e+003,1.168151e+002
1.209361e+003,1.105153e+002
1.211289e+003,1.006214e+002
1.213218e+003,8.957276e+001
1.215146e+003,7.740184e+001
1.217075e+003,6.505325e+001
1.219003e+003,5.402103e+001
1.220932e+003,4.394139e+001
1.222860e+003,3.672425e+001
1.224789e+003,3.447118e+001
1.226717e+003,3.409657e+001
1.228646e+003,3.360085e+001
1.230574e+003,3.291695e+001
1.232502e+003,3.268956e+001
1.234431e+003,3.453881e+001
1.236359e+003,3.491249e+001
1.238288e+003,3.136246e+001
1.240216e+003,2.603765e+001
1.242145e+003,2.366102e+001
1.244073e+003,2.622428e+001
1.246002e+003,2.664675e+001
1.247930e+003,2.098899e+001
1.249859e+003,1.603672e+001
1.251787e+003,1.739380e+001
1.253716e+003,2.357017e+001
1.255644e+003,2.828721e+001
1.257573e+003,3.137054e+001
1.259501e+003,3.250277e+001
1.261429e+003,2.928023e+001
1.263358e+003,2.525067e+001
1.265286e+003,2.477927e+001
1.267215e+003,2.857648e+001
1.269143e+003,3.138338e+001
1.271072e+003,3.132031e+001
1.273000e+003,3.149220e+001
1.274929e+003,3.210518e+001
1.276857e+003,3.379098e+001
1.278786e+003,3.867869e+001
1.280714e+003,5.266749e+001
1.282643e+003,6.136372e+001
1.284571e+003,6.039063e+001
1.286500e+003,5.730590e+001
1.288428e+003,5.689804e+001
1.290356e+003,5.932450e+001
1.292285e+003,6.578891e+001
1.294213e+003,7.981693e+001
1.296142e+003,9.138879e+001
1.298070e+003,9.756335e+001
1.299999e+003,9.884047e+001
1.301927e+003,9.507900e+001
1.303856e+003,8.595724e+001
1.305784e+003,7.722429e+001
1.307713e+003,7.000146e+001
1.309641e+003,6.298402e+001
1.311570e+003,5.428964e+001
1.313498e+003,4.551295e+001
1.315427e+003,4.092525e+001
1.317355e+003,4.143018e+001
1.319283e+003,4.431553e+001
1.321212e+003,5.110201e+001
1.323140e+003,5.834659e+001
1.325069e+003,6.480988e+001
1.326997e+003,7.027183e+001
1.328926e+003,7.214735e+001
1.330854e+003,6.811407e+001
1.332783e+003,6.449583e+001
1.334711e+003,6.316579e+001
1.336640e+003,6.206606e+001
1.338568e+003,5.877685e+001
1.340497e+003,5.355904e+001
1.342425e+003,4.948925e+001
1.344354e+003,4.754387e+001
1.346282e+003,4.539222e+001
1.348210e+003,4.156139e+001
1.350139e+003,3.733749e+001
1.352068e+003,3.421103e+001
1.353996e+003,3.222560e+001
1.355924e+003,3.064009e+001
1.357853e+003,2.946715e+001
1.359781e+003,2.853055e+001
1.361710e+003,2.762557e+001
1.363638e+003,2.693492e+001
1.365567e+003,2.682938e+001
1.367495e+003,2.735365e+001
1.369424e+003,2.836463e+001
1.371352e+003,3.096333e+001
1.373281e+003,3.283525e+001
1.375209e+003,3.242959e+001
1.377138e+003,3.045033e+001
1.379066e+003,2.917777e+001
1.380995e+003,2.887435e+001
1.382923e+003,2.872945e+001
1.384851e+003,2.843435e+001
1.386780e+003,2.851358e+001
1.388708e+003,2.913043e+001
1.390637e+003,3.039820e+001
1.392565e+003,3.253811e+001
1.394494e+003,3.539690e+001
1.396422e+003,3.960176e+001
1.398351e+003,4.841238e+001
1.400279e+003,5.582386e+001
1.402208e+003,5.661083e+001
1.404136e+003,5.245574e+001
1.406065e+003,4.913793e+001
1.407993e+003,4.728997e+001
1.409922e+003,4.529788e+001
1.411850e+003,4.154897e+001
1.413778e+003,3.856668e+001
1.415707e+003,3.720692e+001
1.417635e+003,3.773005e+001
1.419564e+003,4.336139e+001
1.421492e+003,5.719908e+001
1.423421e+003,7.038313e+001
1.425349e+003,8.361032e+001
1.427278e+003,9.363187e+001
1.429206e+003,9.617799e+001
1.431135e+003,9.133794e+001
1.433063e+003,8.954560e+001
1.434992e+003,9.572324e+001
1.436920e+003,9.810149e+001
1.438849e+003,9.397555e+001
1.440777e+003,8.671777e+001
1.442705e+003,7.836742e+001
1.444634e+003,6.906274e+001
1.446562e+003,6.056230e+001
1.448491e+003,5.153242e+001
1.450419e+003,4.548687e+001
1.452348e+003,4.567088e+001
1.454276e+003,4.691696e+001
1.456205e+003,4.435734e+001
1.458133e+003,3.881870e+001
1.460062e+003,3.532135e+001
1.461990e+003,3.422169e+001
1.463919e+003,3.452003e+001
1.465847e+003,3.631271e+001
1.467776e+003,3.911845e+001
1.469704e+003,4.352298e+001
1.471632e+003,4.872567e+001
1.473561e+003,5.149826e+001
1.475489e+003,5.066892e+001
1.477418e+003,5.104491e+001
1.479346e+003,5.592164e+001
1.481275e+003,6.024061e+001
1.483203e+003,6.066032e+001
1.485132e+003,5.789968e+001
1.487060e+003,5.460772e+001
1.488989e+003,5.061261e+001
1.490917e+003,4.685993e+001
1.492846e+003,4.384680e+001
1.494774e+003,4.084903e+001
1.496703e+003,3.670273e+001
1.498631e+003,3.238013e+001
1.500559e+003,3.103086e+001
1.502488e+003,3.392364e+001
1.504416e+003,3.615032e+001
1.506345e+003,3.741876e+001
1.508273e+003,3.785922e+001
1.510202e+003,3.738797e+001
1.512130e+003,3.616109e+001
1.514059e+003,3.418126e+001
1.515987e+003,3.041476e+001
1.517916e+003,2.917151e+001
1.519844e+003,3.211836e+001
1.521773e+003,3.527269e+001
1.523701e+003,3.842547e+001
1.525630e+003,4.056616e+001
1.527558e+003,3.983857e+001
1.529486e+003,3.577496e+001
1.531415e+003,3.286699e+001
1.533343e+003,3.124246e+001
1.535272e+003,3.054003e+001
1.537200e+003,3.191925e+001
1.539129e+003,3.322567e+001
1.541057e+003,3.143866e+001
1.542986e+003,2.729008e+001
1.544914e+003,2.714589e+001
1.546843e+003,3.306101e+001
1.548771e+003,3.764934e+001
1.550700e+003,3.929307e+001
1.552628e+003,3.931655e+001
1.554557e+003,3.757413e+001
1.556485e+003,3.492539e+001
1.558413e+003,3.333660e+001
1.560342e+003,3.265569e+001
1.562270e+003,3.423130e+001
1.564199e+003,4.009443e+001
1.566127e+003,4.566912e+001
1.568056e+003,4.697636e+001
1.569984e+003,4.773624e+001
1.571913e+003,5.348106e+001
1.573841e+003,6.397789e+001
1.575770e+003,7.381583e+001
1.577698e+003,8.427939e+001
1.579627e+003,8.971506e+001
1.581555e+003,8.440988e+001
1.583484e+003,7.642997e+001
1.585412e+003,7.039902e+001
1.587340e+003,6.702410e+001
1.589269e+003,7.043861e+001
1.591197e+003,8.304099e+001
1.593126e+003,9.331509e+001
1.595054e+003,9.820443e+001
1.596983e+003,1.005435e+002
1.598911e+003,1.023290e+002
1.600840e+003,1.024905e+002
1.602768e+003,9.808603e+001
1.604697e+003,8.865028e+001
1.606625e+003,8.079211e+001
1.608554e+003,7.570029e+001
1.610482e+003,7.148846e+001
1.612411e+003,6.683700e+001
1.614339e+003,6.334483e+001
1.616267e+003,6.391270e+001
1.618196e+003,6.768327e+001
1.620124e+003,6.634659e+001
1.622053e+003,5.718716e+001
1.623981e+003,5.046852e+001
1.625910e+003,4.989067e+001
1.627838e+003,5.027755e+001
1.629767e+003,5.018845e+001
1.631695e+003,4.906327e+001
1.633624e+003,4.502407e+001
1.635552e+003,3.725111e+001
1.637481e+003,3.293637e+001
1.639409e+003,3.473082e+001
1.641338e+003,3.638612e+001
1.643266e+003,3.667009e+001
1.645194e+003,3.597077e+001
1.647123e+003,3.398101e+001
1.649051e+003,3.110425e+001
1.650980e+003,2.968674e+001
1.652908e+003,2.998083e+001
1.654837e+003,3.096437e+001
1.656765e+003,3.354217e+001
1.658694e+003,3.553407e+001
1.660622e+003,3.602979e+001
1.662551e+003,3.564691e+001
1.664479e+003,3.525024e+001
1.666408e+003,3.490704e+001
1.668336e+003,3.345065e+001
1.670265e+003,2.924715e+001
1.672193e+003,2.723875e+001
1.674121e+003,3.107764e+001
1.676050e+003,3.396282e+001
1.677978e+003,3.029874e+001
1.679907e+003,2.372762e+001
1.681835e+003,2.227891e+001
1.683764e+003,2.732262e+001
1.685692e+003,3.071711e+001
1.687621e+003,3.145805e+001
1.689549e+003,3.176526e+001
1.691478e+003,3.248759e+001
1.693406e+003,3.256049e+001
1.695335e+003,3.027753e+001
1.697263e+003,2.679393e+001
1.699192e+003,2.628251e+001
1.701120e+003,3.003660e+001
1.703048e+003,3.201497e+001
1.704977e+003,3.013773e+001
1.706905e+003,2.884097e+001
1.708834e+003,3.065724e+001
1.710762e+003,3.223038e+001
1.712691e+003,2.947725e+001
1.714619e+003,2.366742e+001
1.716548e+003,2.197212e+001
1.718476e+003,2.616512e+001
1.720405e+003,2.858598e+001
1.722333e+003,2.690189e+001
1.724262e+003,2.565106e+001
1.726190e+003,2.636185e+001
1.728119e+003,2.793729e+001
1.730047e+003,3.029128e+001
1.731975e+003,3.292276e+001
1.733904e+003,3.129609e+001
1.735832e+003,2.293796e+001
1.737761e+003,1.889106e+001
1.739689e+003,2.402299e+001
1.741618e+003,2.868622e+001
1.743546e+003,2.938912e+001
1.745475e+003,2.838487e+001
1.747403e+003,2.784838e+001
1.749332e+003,2.760396e+001
1.751260e+003,2.596839e+001
1.753189e+003,2.208042e+001
1.755117e+003,2.054074e+001
1.757046e+003,2.349033e+001
1.758974e+003,2.653471e+001
1.760902e+003,2.835216e+001
1.762831e+003,2.936123e+001
1.764759e+003,2.938808e+001
1.766688e+003,2.885753e+001
1.768616e+003,3.033469e+001
1.770545e+003,3.466460e+001
1.772473e+003,3.553987e+001
1.774402e+003,2.930873e+001
1.776330e+003,2.436852e+001
1.778259e+003,2.488598e+001
1.780187e+003,2.721871e+001
1.782116e+003,2.899877e+001
1.784044e+003,3.023018e+001
1.785973e+003,3.089737e+001
1.787901e+003,3.100002e+001
1.789829e+003,3.060616e+001
1.791758e+003,2.940766e+001
1.793686e+003,2.848524e+001
1.795615e+003,2.832696e+001
1.797543e+003,2.844804e+001
1.799472e+003,2.813745e+001
1.801400e+003,2.801155e+001
1.803329e+003,2.991783e+001
1.805257e+003,3.373944e+001
1.807186e+003,3.493764e+001
1.809114e+003,3.217134e+001
1.811043e+003,2.946987e+001
1.812971e+003,2.715962e+001
1.814900e+003,2.615929e+001
1.816828e+003,2.788442e+001
1.818756e+003,3.069451e+001
1.820685e+003,3.240165e+001
1.822613e+003,3.310279e+001
1.824542e+003,3.362381e+001
1.826470e+003,3.439531e+001
1.828399e+003,3.352680e+001
1.830327e+003,2.875714e+001
1.832256e+003,2.488624e+001
1.834184e+003,2.425594e+001
1.836113e+003,2.475755e+001
1.838041e+003,2.427846e+001
1.839970e+003,2.324390e+001
1.841898e+003,2.330513e+001
1.843827e+003,2.493983e+001
1.845755e+003,2.594591e+001
1.847684e+003,2.609564e+001
1.849612e+003,2.594438e+001
1.851541e+003,2.487573e+001
1.853469e+003,2.428100e+001
1.855397e+003,2.546300e+001
1.857326e+003,2.743974e+001
1.859254e+003,2.867914e+001
1.861183e+003,2.917076e+001
1.863111e+003,2.908859e+001
1.865040e+003,2.800068e+001
1.866968e+003,2.731846e+001
1.868897e+003,2.790265e+001
1.870825e+003,2.789931e+001
1.872754e+003,2.526629e+001
1.874682e+003,2.322098e+001
1.876611e+003,2.576598e+001
1.878539e+003,3.082344e+001
1.880468e+003,3.166720e+001
1.882396e+003,2.791890e+001
1.884324e+003,2.680518e+001
1.886253e+003,3.008185e+001
1.888181e+003,3.228946e+001
1.890110e+003,3.181598e+001
1.892038e+003,3.044925e+001
1.893967e+003,2.808914e+001
1.895895e+003,2.606719e+001
1.897824e+003,2.640156e+001
1.899752e+003,2.815326e+001
1.901681e+003,2.790201e+001
1.903609e+003,2.537982e+001
1.905538e+003,2.474088e+001
1.907466e+003,2.744517e+001
1.909395e+003,2.959781e+001
1.911323e+003,2.972162e+001
1.913251e+003,2.934300e+001
1.915180e+003,2.883851e+001
1.917108e+003,2.860101e+001
1.919037e+003,2.929076e+001
1.920965e+003,3.074811e+001
1.922894e+003,3.226364e+001
1.924822e+003,3.438361e+001
1.926751e+003,3.449366e+001
1.928679e+003,2.990084e+001
1.930608e+003,2.720564e+001
1.932536e+003,2.935093e+001
1.934465e+003,3.170393e+001
1.936393e+003,3.120396e+001
1.938322e+003,2.967432e+001
1.940250e+003,2.956298e+001
1.942178e+003,3.068368e+001
1.944107e+003,3.171288e+001
1.946035e+003,3.258215e+001
1.947964e+003,3.363106e+001
1.949892e+003,3.489880e+001
1.951821e+003,3.634243e+001
1.953749e+003,3.907135e+001
1.955678e+003,4.059182e+001
1.957606e+003,3.869677e+001
1.959535e+003,3.578933e+001
1.961463e+003,3.476118e+001
1.963392e+003,3.488802e+001
1.965320e+003,3.317513e+001
1.967249e+003,2.949559e+001
1.969177e+003,2.972555e+001
1.971105e+003,3.630877e+001
1.973034e+003,4.073828e+001
1.974962e+003,3.973402e+001
1.976891e+003,3.773865e+001
1.978819e+003,3.645692e+001
1.980748e+003,3.536181e+001
1.982676e+003,3.338102e+001
1.984605e+003,3.135767e+001
1.986533e+003,3.148778e+001
1.988462e+003,3.387526e+001
1.990390e+003,3.657004e+001
1.992319e+003,4.111478e+001
1.994247e+003,4.324469e+001
1.996176e+003,4.222924e+001
1.998104e+003,3.980446e+001
2.000032e+003,3.372286e+001
2.001961e+003,2.933235e+001
2.003889e+003,3.179029e+001
2.005818e+003,3.699768e+001
2.007746e+003,3.924327e+001
2.009675e+003,3.880264e+001
2.011603e+003,3.673019e+001
2.013532e+003,3.266772e+001
2.015460e+003,3.271236e+001
2.017389e+003,3.945403e+001
2.019317e+003,4.371449e+001
2.021246e+003,4.182151e+001
2.023174e+003,3.922075e+001
2.025103e+003,3.793064e+001
2.027031e+003,3.761734e+001
2.028959e+003,3.846079e+001
2.030888e+003,3.987262e+001
2.032816e+003,4.093756e+001
2.034745e+003,4.161905e+001
2.036673e+003,4.117434e+001
2.038602e+003,3.887735e+001
2.040530e+003,3.762304e+001
2.042459e+003,3.866229e+001
2.044387e+003,3.891930e+001
2.046316e+003,3.615152e+001
2.048244e+003,3.473436e+001
2.050173e+003,3.915928e+001
2.052101e+003,4.354018e+001
2.054030e+003,4.010362e+001
2.055958e+003,3.319612e+001
2.057886e+003,3.428499e+001
2.059815e+003,4.230695e+001
2.061743e+003,4.547424e+001
2.063672e+003,4.262787e+001
2.065600e+003,4.083187e+001
2.067529e+003,4.126584e+001
2.069457e+003,4.233848e+001
2.071386e+003,4.438668e+001
2.073314e+003,4.582087e+001
2.075243e+003,4.464836e+001
2.077171e+003,4.371449e+001
2.079100e+003,4.690326e+001
2.081028e+003,5.156602e+001
2.082957e+003,5.231904e+001
2.084885e+003,4.942042e+001
2.086813e+003,4.605118e+001
2.088742e+003,4.086710e+001
2.090670e+003,3.935519e+001
2.092599e+003,4.356120e+001
2.094527e+003,4.733452e+001
2.096456e+003,5.008659e+001
2.098384e+003,5.184130e+001
2.100313e+003,5.250951e+001
2.102241e+003,5.231578e+001
2.104170e+003,5.052337e+001
2.106098e+003,4.859885e+001
2.108027e+003,4.895573e+001
2.109955e+003,5.064714e+001
2.111884e+003,5.065569e+001
2.113812e+003,4.894690e+001
2.115740e+003,4.761513e+001
2.117669e+003,4.679440e+001
2.119597e+003,4.628397e+001
2.121526e+003,4.616056e+001
2.123454e+003,4.620738e+001
2.125383e+003,4.696549e+001
2.127311e+003,4.711792e+001
2.129240e+003,4.535117e+001
2.131168e+003,4.332671e+001
2.133097e+003,4.168737e+001
2.135025e+003,4.126723e+001
2.136954e+003,4.508589e+001
2.138882e+003,5.167620e+001
2.140811e+003,5.313159e+001
2.142739e+003,4.934800e+001
2.144667e+003,4.659478e+001
2.146596e+003,4.551920e+001
2.148524e+003,4.502543e+001
2.150453e+003,4.512687e+001
2.152381e+003,4.532799e+001
2.154310e+003,4.568273e+001
2.156238e+003,4.582119e+001
2.158167e+003,4.527225e+001
2.160095e+003,4.471502e+001
2.162024e+003,4.474371e+001
2.163952e+003,4.520817e+001
2.165881e+003,4.608251e+001
2.167809e+003,4.719399e+001
2.169738e+003,4.767072e+001
2.171666e+003,4.750926e+001
2.173594e+003,4.557756e+001
2.175523e+003,4.110638e+001
2.177451e+003,3.940303e+001
2.179380e+003,4.234538e+001
2.181308e+003,4.519715e+001
2.183237e+003,4.737536e+001
2.185165e+003,4.803584e+001
2.187094e+003,4.585548e+001
2.189022e+003,4.315724e+001
2.190951e+003,4.068668e+001
2.192879e+003,3.935604e+001
2.194808e+003,4.125117e+001
2.196736e+003,4.497138e+001
2.198665e+003,4.669995e+001
2.200593e+003,4.645445e+001
2.202521e+003,4.543919e+001
2.204450e+003,4.356158e+001
2.206378e+003,4.199352e+001
2.208307e+003,4.079839e+001
2.210235e+003,4.013902e+001
2.212164e+003,4.010695e+001
2.214092e+003,4.051793e+001
2.216021e+003,4.138833e+001
2.217949e+003,4.259606e+001
2.219878e+003,4.568584e+001
2.221806e+003,4.733536e+001
2.223735e+003,4.273362e+001
2.225663e+003,3.683875e+001
2.227592e+003,3.667124e+001
2.229520e+003,4.038486e+001
2.231448e+003,4.344982e+001
2.233377e+003,4.578634e+001
2.235305e+003,4.599155e+001
2.237234e+003,4.400808e+001
2.239162e+003,4.330943e+001
2.241091e+003,4.435038e+001
2.243019e+003,4.590395e+001
2.244948e+003,4.822935e+001
2.246876e+003,4.994553e+001
2.248805e+003,5.138115e+001
2.250733e+003,5.107147e+001
2.252662e+003,4.598818e+001
2.254590e+003,4.193655e+001
2.256519e+003,4.490869e+001
2.258447e+003,4.844806e+001
2.260375e+003,4.386094e+001
2.262304e+003,3.692949e+001
2.264232e+003,3.943029e+001
2.266161e+003,4.745871e+001
2.268089e+003,4.794421e+001
2.270018e+003,4.189550e+001
2.271946e+003,3.980051e+001
2.273875e+003,4.250616e+001
2.275803e+003,4.584030e+001
2.277732e+003,5.105807e+001
2.279660e+003,5.328852e+001
2.281589e+003,4.929610e+001
2.283517e+003,4.694463e+001
2.285446e+003,4.876815e+001
2.287374e+003,5.058210e+001
2.289302e+003,5.131198e+001
2.291231e+003,5.130496e+001
2.293159e+003,5.009064e+001
2.295088e+003,4.886526e+001
2.297016e+003,4.811447e+001
2.298945e+003,4.838085e+001
2.300873e+003,5.201644e+001
2.302802e+003,5.668800e+001
2.304730e+003,5.537761e+001
2.306659e+003,4.920420e+001
2.308587e+003,4.754763e+001
2.310516e+003,5.114975e+001
2.312444e+003,5.297924e+001
2.314373e+003,5.259513e+001
2.316301e+003,5.315379e+001
2.318229e+003,5.522435e+001
2.320158e+003,5.705206e+001
2.322086e+003,5.860126e+001
2.324015e+003,5.916255e+001
2.325943e+003,5.754118e+001
2.327872e+003,5.630932e+001
2.329800e+003,5.691401e+001
2.331729e+003,5.754845e+001
2.333657e+003,5.689932e+001
2.335586e+003,5.607508e+001
2.337514e+003,5.634312e+001
2.339443e+003,5.669464e+001
2.341371e+003,5.561723e+001
2.343300e+003,5.382659e+001
2.345228e+003,5.250733e+001
2.347156e+003,5.171511e+001
2.349085e+003,5.157135e+001
2.351013e+003,5.209639e+001
2.352942e+003,5.332054e+001
2.354870e+003,5.526482e+001
2.356799e+003,5.815978e+001
2.358727e+003,6.393442e+001
2.360656e+003,6.464330e+001
2.362584e+003,5.702796e+001
2.364513e+003,5.361032e+001
2.366441e+003,5.815249e+001
2.368370e+003,6.188201e+001
2.370298e+003,6.175303e+001
2.372227e+003,6.145008e+001
2.374155e+003,6.381414e+001
2.376083e+003,6.458620e+001
2.378012e+003,5.838823e+001
2.379940e+003,5.362025e+001
2.381869e+003,5.871165e+001
2.383797e+003,6.589919e+001
2.385726e+003,6.782828e+001
2.387654e+003,6.666208e+001
2.389583e+003,6.377893e+001
2.391511e+003,6.093293e+001
2.393440e+003,6.254605e+001
2.395368e+003,6.712020e+001
2.397297e+003,6.971935e+001
2.399225e+003,7.029025e+001
2.401154e+003,6.755357e+001
2.403082e+003,6.054696e+001
2.405010e+003,5.870477e+001
2.406939e+003,6.399766e+001
2.408867e+003,6.337901e+001
2.410796e+003,5.389569e+001
2.412724e+003,5.071809e+001
2.414653e+003,5.802500e+001
2.416581e+003,6.494890e+001
2.418510e+003,6.956801e+001
2.420438e+003,7.217384e+001
2.422367e+003,7.301800e+001
2.424295e+003,7.145521e+001
2.426224e+003,6.329147e+001
2.428152e+003,5.812028e+001
2.430081e+003,6.323159e+001
2.432009e+003,6.907088e+001
2.433938e+003,7.083565e+001
2.435866e+003,7.040060e+001
2.437794e+003,6.853010e+001
2.439723e+003,6.595496e+001
2.441651e+003,6.259783e+001
2.443580e+003,5.966391e+001
2.445508e+003,5.959649e+001
2.447437e+003,6.109505e+001
2.449365e+003,6.122977e+001
2.451294e+003,6.039249e+001
2.453222e+003,6.025567e+001
2.455151e+003,6.054829e+001
2.457079e+003,5.939014e+001
2.459008e+003,5.706916e+001
2.460936e+003,5.773700e+001
2.462865e+003,6.217789e+001
2.464793e+003,6.420266e+001
2.466721e+003,6.314059e+001
2.468650e+003,6.173317e+001
2.470578e+003,5.993771e+001
2.472507e+003,5.731713e+001
2.474435e+003,5.261224e+001
2.476364e+003,5.289766e+001
2.478292e+003,6.222942e+001
2.480221e+003,6.852837e+001
2.482149e+003,6.673580e+001
2.484078e+003,6.484189e+001
2.486006e+003,6.454422e+001
2.487935e+003,6.460856e+001
2.489863e+003,6.488227e+001
2.491792e+003,6.512821e+001
2.493720e+003,6.548938e+001
2.495648e+003,6.541335e+001
2.497577e+003,6.474120e+001
2.499505e+003,6.333344e+001
2.501434e+003,5.988705e+001
2.503362e+003,5.710180e+001
2.505291e+003,5.774433e+001
2.507219e+003,5.967089e+001
2.509148e+003,6.077362e+001
2.511076e+003,6.182684e+001
2.513005e+003,6.393058e+001
2.514933e+003,6.648864e+001
2.516862e+003,6.951381e+001
2.518790e+003,7.182565e+001
2.520719e+003,7.078141e+001
2.522647e+003,6.742918e+001
2.524575e+003,6.344479e+001
2.526504e+003,5.974714e+001
2.528432e+003,6.118362e+001
2.530361e+003,6.653608e+001
2.532289e+003,6.840780e+001
2.534218e+003,6.744129e+001
2.536146e+003,6.917764e+001
2.538075e+003,7.364160e+001
2.540003e+003,7.317999e+001
2.541932e+003,6.668955e+001
2.543860e+003,6.525224e+001
2.545789e+003,7.028338e+001
2.547717e+003,7.051116e+001
2.549646e+003,6.494431e+001
2.551574e+003,6.201466e+001
2.553502e+003,6.279699e+001
2.555431e+003,6.425356e+001
2.557359e+003,6.623417e+001
2.559288e+003,6.808328e+001
2.561216e+003,6.936102e+001
2.563145e+003,7.126797e+001
2.565073e+003,7.428144e+001
2.567002e+003,7.685229e+001
2.568930e+003,7.916537e+001
2.570859e+003,7.960281e+001
2.572787e+003,7.700043e+001
2.574716e+003,7.415580e+001
2.576644e+003,7.069168e+001
2.578573e+003,6.890076e+001
2.580501e+003,7.089075e+001
2.582429e+003,7.219579e+001
2.584358e+003,7.171455e+001
2.586287e+003,7.020598e+001
2.588215e+003,6.660608e+001
2.590144e+003,6.445250e+001
2.592072e+003,6.703931e+001
2.594000e+003,6.913004e+001
2.595929e+003,6.687647e+001
2.597857e+003,6.522732e+001
2.599786e+003,6.877309e+001
2.601714e+003,7.101591e+001
2.603643e+003,6.617163e+001
2.605571e+003,6.199751e+001
2.607500e+003,6.484684e+001
2.609428e+003,6.884570e+001
2.611357e+003,7.087710e+001
2.613285e+003,7.079803e+001
2.615214e+003,6.634430e+001
2.617142e+003,6.213155e+001
2.619071e+003,6.312662e+001
2.620999e+003,6.515886e+001
2.622927e+003,6.442648e+001
2.624856e+003,6.313773e+001
2.626784e+003,6.398428e+001
2.628713e+003,6.503555e+001
2.630641e+003,6.391076e+001
2.632570e+003,6.192754e+001
2.634498e+003,6.062554e+001
2.636427e+003,5.946740e+001
2.638355e+003,5.740909e+001
2.640284e+003,5.543596e+001
2.642212e+003,5.430243e+001
2.644141e+003,5.453242e+001
2.646069e+003,5.874178e+001
2.647998e+003,6.343311e+001
2.649926e+003,6.173709e+001
2.651854e+003,5.740268e+001
2.653783e+003,5.596726e+001
2.655711e+003,5.675954e+001
2.657640e+003,6.063381e+001
2.659568e+003,6.469250e+001
2.661497e+003,6.151654e+001
2.663425e+003,5.578509e+001
2.665354e+003,5.802908e+001
2.667282e+003,6.433272e+001
2.669211e+003,6.675556e+001
2.671139e+003,6.675543e+001
2.673068e+003,6.730618e+001
2.674996e+003,6.758682e+001
2.676925e+003,6.503258e+001
2.678853e+003,6.121673e+001
2.680781e+003,6.015242e+001
2.682710e+003,6.069586e+001
2.684638e+003,5.969679e+001
2.686567e+003,5.834188e+001
2.688495e+003,6.002507e+001
2.690424e+003,6.287390e+001
2.692352e+003,6.183644e+001
2.694281e+003,5.862666e+001
2.696209e+003,5.697609e+001
2.698138e+003,5.700651e+001
2.700066e+003,6.011431e+001
2.701995e+003,6.459898e+001
2.703923e+003,6.698159e+001
2.705852e+003,6.757519e+001
2.707780e+003,6.653385e+001
2.709708e+003,6.465401e+001
2.711637e+003,6.395690e+001
2.713565e+003,6.405000e+001
2.715494e+003,6.366994e+001
2.717422e+003,6.361118e+001
2.719351e+003,6.649254e+001
2.721279e+003,7.027950e+001
2.723208e+003,7.010215e+001
2.725136e+003,6.776221e+001
2.727065e+003,6.676046e+001
2.728993e+003,6.668346e+001
2.730922e+003,6.693990e+001
2.732850e+003,6.733709e+001
2.734779e+003,6.713010e+001
2.736707e+003,6.711195e+001
2.738635e+003,7.015467e+001
2.740564e+003,7.342645e+001
2.742492e+003,7.146902e+001
2.744421e+003,6.668861e+001
2.746349e+003,6.023207e+001
2.748278e+003,5.568608e+001
2.750206e+003,6.099997e+001
2.752135e+003,6.919160e+001
2.754063e+003,6.992451e+001
2.755992e+003,6.743627e+001
2.757920e+003,6.684081e+001
2.759849e+003,6.688940e+001
2.761777e+003,6.610912e+001
2.763706e+003,6.532764e+001
2.765634e+003,6.672914e+001
2.767563e+003,6.732285e+001
2.769491e+003,6.011297e+001
2.771419e+003,5.467241e+001
2.773348e+003,6.381259e+001
2.775276e+003,7.393650e+001
2.777205e+003,7.091776e+001
2.779133e+003,6.629345e+001
2.781062e+003,7.211971e+001
2.782990e+003,7.767255e+001
2.784919e+003,7.245776e+001
2.786847e+003,6.679339e+001
2.788776e+003,6.660470e+001
2.790704e+003,6.892685e+001
2.792633e+003,7.574083e+001
2.794561e+003,7.908698e+001
2.796490e+003,6.939310e+001
2.798418e+003,6.279408e+001
2.800346e+003,6.857871e+001
2.802275e+003,7.474207e+001
2.804203e+003,7.619360e+001
2.806132e+003,7.563850e+001
2.808060e+003,7.178352e+001
2.809989e+003,6.997531e+001
2.811917e+003,7.348415e+001
2.813846e+003,7.518282e+001
2.815774e+003,7.180693e+001
2.817703e+003,6.914075e+001
2.819631e+003,6.775201e+001
2.821560e+003,6.969263e+001
2.823488e+003,7.629282e+001
2.825417e+003,8.431953e+001
2.827345e+003,9.495416e+001
2.829273e+003,1.000328e+002
2.831202e+003,9.518374e+001
2.833130e+003,9.397122e+001
2.835059e+003,9.855560e+001
2.836987e+003,1.064779e+002
2.838916e+003,1.188022e+002
2.840844e+003,1.247873e+002
2.842773e+003,1.226648e+002
2.844701e+003,1.252980e+002
2.846630e+003,1.344311e+002
2.848558e+003,1.451249e+002
2.850487e+003,1.579543e+002
2.852415e+003,1.570972e+002
2.854344e+003,1.445549e+002
2.856272e+003,1.425601e+002
2.858200e+003,1.497885e+002
2.860129e+003,1.494292e+002
2.862057e+003,1.422378e+002
2.863986e+003,1.302998e+002
2.865914e+003,1.160183e+002
2.867843e+003,1.075704e+002
2.869771e+003,1.031958e+002
2.871700e+003,9.959052e+001
2.873628e+003,9.642415e+001
2.875557e+003,9.160167e+001
2.877485e+003,8.799356e+001
2.879414e+003,9.129993e+001
2.881342e+003,9.714633e+001
2.883271e+003,1.019577e+002
2.885199e+003,1.053966e+002
2.887127e+003,1.061189e+002
2.889056e+003,1.065139e+002
2.890984e+003,1.066564e+002
2.892913e+003,1.098037e+002
2.894841e+003,1.194367e+002
2.896770e+003,1.305570e+002
2.898698e+003,1.367439e+002
2.900627e+003,1.497791e+002
2.902555e+003,1.749520e+002
2.904484e+003,2.051216e+002
2.906412e+003,2.346373e+002
2.908341e+003,2.773663e+002
2.910269e+003,3.386009e+002
2.912198e+003,4.144665e+002
2.914126e+003,5.163703e+002
2.916054e+003,5.922383e+002
2.917983e+003,6.377356e+002
2.919911e+003,6.412224e+002
2.921840e+003,5.917570e+002
2.923768e+003,5.331345e+002
2.925697e+003,4.641847e+002
2.927625e+003,4.005949e+002
2.929554e+003,3.440445e+002
2.931482e+003,3.134994e+002
2.933411e+003,3.061812e+002
2.935339e+003,2.989248e+002
2.937268e+003,2.928610e+002
2.939196e+003,2.933337e+002
2.941125e+003,2.990948e+002
2.943053e+003,3.132049e+002
2.944981e+003,3.253105e+002
2.946910e+003,3.173090e+002
2.948838e+003,2.980036e+002
2.950767e+003,2.696161e+002
2.952695e+003,2.470883e+002
2.954624e+003,2.477299e+002
2.956552e+003,2.524354e+002
2.958481e+003,2.493307e+002
2.960409e+003,2.429155e+002
2.962338e+003,2.371146e+002
2.964266e+003,2.253988e+002
2.966195e+003,2.004980e+002
2.968123e+003,1.809053e+002
2.970052e+003,1.748493e+002
2.971980e+003,1.716113e+002
2.973908e+003,1.716583e+002
2.975837e+003,1.670279e+002
2.977765e+003,1.560298e+002
2.979694e+003,1.462516e+002
2.981622e+003,1.393835e+002
2.983551e+003,1.271675e+002
2.985479e+003,1.095178e+002
2.987408e+003,1.061060e+002
2.989336e+003,1.142458e+002
2.991265e+003,1.171240e+002
2.993193e+003,1.171661e+002
2.995122e+003,1.239015e+002
2.997050e+003,1.341455e+002
2.998979e+003,1.429846e+002
3.000907e+003,1.490353e+002
3.002835e+003,1.508716e+002
3.004764e+003,1.487220e+002
3.006692e+003,1.391288e+002
3.008621e+003,1.306726e+002
3.010549e+003,1.303735e+002
3.012478e+003,1.300744e+002
3.014406e+003,1.198000e+002
3.016335e+003,1.186128e+002
3.018263e+003,1.389509e+002
3.020192e+003,1.577044e+002
3.022120e+003,1.702585e+002
3.024049e+003,1.865048e+002
3.025977e+003,2.056855e+002
3.027906e+003,2.425832e+002
3.029834e+003,3.019840e+002
3.031762e+003,3.427444e+002
3.033691e+003,3.648700e+002
3.035619e+003,3.771944e+002
3.037548e+003,3.773615e+002
3.039476e+003,3.417250e+002
3.041405e+003,2.898083e+002
3.043333e+003,2.620526e+002
3.045262e+003,2.606118e+002
3.047190e+003,2.892159e+002
3.049119e+003,3.417382e+002
3.051047e+003,4.323871e+002
3.052976e+003,5.145789e+002
3.054904e+003,5.588497e+002
3.056833e+003,5.868667e+002
3.058761e+003,6.143405e+002
3.060689e+003,6.179330e+002
3.062618e+003,5.896349e+002
3.064546e+003,5.412325e+002
3.066475e+003,4.701116e+002
3.068403e+003,4.045075e+002
3.070332e+003,3.485336e+002
3.072260e+003,2.942368e+002
3.074189e+003,2.414008e+002
3.076117e+003,1.965272e+002
3.078046e+003,1.602932e+002
3.079974e+003,1.337047e+002
3.081903e+003,1.166066e+002
3.083831e+003,1.137410e+002
3.085760e+003,1.155178e+002
3.087688e+003,1.079469e+002
3.089616e+003,1.000229e+002
3.091545e+003,1.005553e+002
3.093473e+003,1.011307e+002
3.095402e+003,9.590200e+001
3.097330e+003,9.127097e+001
3.099259e+003,8.904845e+001
3.101187e+003,8.754990e+001
3.103116e+003,8.759682e+001
3.105044e+003,8.496195e+001
3.106973e+003,7.907966e+001
3.108901e+003,7.659835e+001
3.110830e+003,7.775613e+001
3.112758e+003,7.849171e+001
3.114687e+003,7.873530e+001
3.116615e+003,7.856915e+001
3.118543e+003,7.781654e+001
3.120472e+003,7.577752e+001
3.122400e+003,7.339045e+001
3.124329e+003,7.236955e+001
3.126257e+003,7.065030e+001
3.128186e+003,6.504976e+001
3.130114e+003,6.149001e+001
3.132043e+003,6.441982e+001
3.133971e+003,6.686017e+001
3.135900e+003,6.685058e+001
3.137828e+003,6.686196e+001
3.139757e+003,6.715598e+001
3.141685e+003,6.659530e+001
3.143614e+003,6.495741e+001
3.145542e+003,6.410593e+001
3.147470e+003,6.404578e+001
3.149399e+003,6.581950e+001
3.151327e+003,6.769447e+001
3.153256e+003,6.476524e+001
3.155184e+003,6.141648e+001
3.157113e+003,6.359392e+001
3.159041e+003,6.740322e+001
3.160970e+003,7.216747e+001
3.162898e+003,7.422098e+001
3.164827e+003,7.089903e+001
3.166755e+003,6.602364e+001
3.168684e+003,5.942691e+001
3.170612e+003,5.602586e+001
3.172541e+003,5.725085e+001
3.174469e+003,5.567527e+001
3.176397e+003,5.123478e+001
3.178326e+003,5.118341e+001
3.180254e+003,5.394740e+001
3.182183e+003,5.487783e+001
3.184111e+003,5.514376e+001
3.186040e+003,5.792031e+001
3.187968e+003,5.928234e+001
3.189897e+003,5.316202e+001
3.191825e+003,4.954495e+001
3.193754e+003,5.689732e+001
3.195682e+003,6.177221e+001
3.197611e+003,6.056061e+001
3.199539e+003,6.017263e+001
3.201468e+003,6.210558e+001
3.203396e+003,6.081935e+001
3.205324e+003,5.615470e+001
3.207253e+003,4.983768e+001
3.209181e+003,4.412027e+001
3.211110e+003,4.778934e+001
3.213038e+003,5.407974e+001
3.214967e+003,5.219699e+001
3.216895e+003,4.807903e+001
3.218824e+003,4.509939e+001
3.220752e+003,4.401501e+001
3.222681e+003,4.735381e+001
3.224609e+003,4.818074e+001
3.226538e+003,4.429938e+001
3.228466e+003,4.300512e+001
3.230395e+003,4.548527e+001
3.232323e+003,4.815941e+001
3.234251e+003,5.043795e+001
3.236180e+003,4.556975e+001
3.238108e+003,3.819643e+001
3.240037e+003,3.848269e+001
3.241965e+003,4.126743e+001
3.243894e+003,4.145520e+001
3.245822e+003,4.022356e+001
3.247751e+003,3.669944e+001
3.249679e+003,3.526324e+001
3.251608e+003,3.886718e+001
3.253536e+003,4.207231e+001
3.255465e+003,4.452869e+001
3.257393e+003,4.602342e+001
3.259322e+003,4.642871e+001
3.261250e+003,4.400599e+001
3.263178e+003,4.002896e+001
3.265107e+003,3.783369e+001
3.267035e+003,3.729198e+001
3.268964e+003,3.988460e+001
3.270892e+003,4.164316e+001
3.272821e+003,3.907860e+001
3.274749e+003,3.649368e+001
3.276678e+003,3.453606e+001
3.278606e+003,3.512218e+001
3.280535e+003,3.948500e+001
3.282463e+003,3.979375e+001
3.284392e+003,3.678430e+001
3.286320e+003,4.031976e+001
3.288249e+003,4.592289e+001
3.290177e+003,3.821660e+001
3.292105e+003,2.894941e+001
3.294034e+003,3.239529e+001
3.295962e+003,3.723296e+001
3.297891e+003,3.601981e+001
3.299819e+003,3.543639e+001
3.301748e+003,3.716972e+001
3.303676e+003,3.895915e+001
3.305605e+003,4.092282e+001
3.307533e+003,3.787917e+001
3.309462e+003,3.143399e+001
3.311390e+003,3.259577e+001
3.313319e+003,3.727570e+001
3.315247e+003,3.895906e+001
3.317176e+003,3.947030e+001
3.319104e+003,4.047687e+001
3.321032e+003,4.078894e+001
3.322961e+003,3.860032e+001
3.324889e+003,3.876045e+001
3.326818e+003,4.280680e+001
3.328746e+003,4.101638e+001
3.330675e+003,3.354783e+001
3.332603e+003,3.596260e+001
3.334532e+003,4.330884e+001
3.336460e+003,3.938916e+001
3.338389e+003,3.284092e+001
3.340317e+003,3.285162e+001
3.342246e+003,3.405416e+001
3.344174e+003,3.401403e+001
3.346103e+003,3.295404e+001
3.348031e+003,2.953044e+001
3.349959e+003,3.289486e+001
3.351888e+003,4.447525e+001
3.353816e+003,4.479303e+001
3.355745e+003,3.796745e+001
3.357673e+003,3.664148e+001
3.359602e+003,3.716843e+001
3.361530e+003,3.461280e+001
3.363459e+003,3.176689e+001
3.365387e+003,2.951173e+001
3.367316e+003,2.885417e+001
3.369244e+003,3.042542e+001
3.371173e+003,3.244199e+001
3.373101e+003,3.472269e+001
3.375030e+003,3.622470e+001
3.376958e+003,3.639347e+001
3.378886e+003,3.117938e+001
3.380815e+003,2.584248e+001
3.382743e+003,2.681569e+001
3.384672e+003,2.959097e+001
3.386600e+003,3.297398e+001
3.388529e+003,3.408392e+001
3.390457e+003,3.152899e+001
3.392386e+003,3.187550e+001
3.394314e+003,3.566916e+001
3.396243e+003,3.427909e+001
3.398171e+003,3.013612e+001
3.400100e+003,2.809726e+001
3.402028e+003,2.859765e+001
3.403957e+003,3.557024e+001
3.405885e+003,3.928102e+001
3.407813e+003,3.253218e+001
3.409742e+003,3.012485e+001
3.411670e+003,3.579274e+001
3.413599e+003,3.700698e+001
3.415527e+003,3.412183e+001
3.417456e+003,3.185700e+001
3.419384e+003,3.114406e+001
3.421313e+003,3.574340e+001
3.423241e+003,3.981381e+001
3.425170e+003,3.859724e+001
3.427098e+003,3.635108e+001
3.429027e+003,3.359896e+001
3.430955e+003,3.333873e+001
3.432884e+003,3.599333e+001
3.434812e+003,3.760928e+001
3.436740e+003,3.849881e+001
3.438669e+003,4.137479e+001
3.440597e+003,4.277196e+001
3.442526e+003,3.692390e+001
3.444454e+003,3.154138e+001
3.446383e+003,2.981418e+001
3.448311e+003,3.008157e+001
3.450240e+003,3.292688e+001
3.452168e+003,3.246994e+001
3.454097e+003,2.953020e+001
3.456025e+003,3.036729e+001
3.457954e+003,3.296644e+001
3.459882e+003,3.505050e+001
3.461811e+003,3.631237e+001
3.463739e+003,3.610361e+001
3.465667e+003,3.655867e+001
3.467596e+003,3.923942e+001
3.469524e+003,4.009012e+001
3.471453e+003,3.915281e+001
3.473381e+003,3.665732e+001
3.475310e+003,3.395679e+001
3.477238e+003,3.402894e+001
3.479167e+003,3.488762e+001
3.481095e+003,3.747353e+001
3.483024e+003,3.492599e+001
3.484952e+003,2.116549e+001
3.486881e+003,2.019003e+001
3.488809e+003,3.257073e+001
3.490738e+003,3.676060e+001
3.492666e+003,3.551655e+001
3.494594e+003,3.573399e+001
3.496523e+003,3.586647e+001
3.498451e+003,3.520536e+001
3.500380e+003,3.258389e+001
3.502308e+003,2.660742e+001
3.504237e+003,2.551934e+001
3.506165e+003,3.040144e+001
3.508094e+003,3.319661e+001
3.510022e+003,3.456574e+001
3.511951e+003,3.612003e+001
3.513879e+003,3.730031e+001
3.515808e+003,3.700572e+001
3.517736e+003,3.752642e+001
3.519665e+003,3.986446e+001
3.521593e+003,4.109273e+001
3.523521e+003,4.096027e+001
3.525450e+003,3.728966e+001
3.527378e+003,3.284076e+001
3.529307e+003,3.353701e+001
3.531235e+003,3.523149e+001
3.533164e+003,3.427287e+001
3.535092e+003,3.470949e+001
3.537021e+003,3.856776e+001
3.538949e+003,4.148520e+001
3.540878e+003,4.306713e+001
3.542806e+003,3.961295e+001
3.544735e+003,3.433165e+001
3.546663e+003,3.152982e+001
3.548592e+003,3.066077e+001
3.550520e+003,3.187181e+001
3.552448e+003,3.332096e+001
3.554377e+003,3.473003e+001
3.556305e+003,3.547251e+001
3.558234e+003,3.567564e+001
3.560162e+003,3.639562e+001
3.562091e+003,3.661750e+001
3.564019e+003,3.403971e+001
3.565948e+003,3.229402e+001
3.567876e+003,3.356878e+001
3.569805e+003,3.514186e+001
3.571733e+003,3.676183e+001
3.573662e+003,3.711865e+001
3.575590e+003,3.618732e+001
3.577519e+003,3.217874e+001
3.579447e+003,2.933562e+001
3.581376e+003,3.206742e+001
3.583304e+003,3.487878e+001
3.585233e+003,3.650092e+001
3.587161e+003,3.644708e+001
3.589090e+003,3.508075e+001
3.591018e+003,3.601660e+001
3.592947e+003,3.789863e+001
3.594875e+003,3.981809e+001
3.596803e+003,3.971862e+001
3.598732e+003,3.451241e+001
3.600660e+003,3.175300e+001
3.602589e+003,3.219746e+001
3.604517e+003,3.025656e+001
3.606446e+003,2.586936e+001
3.608374e+003,1.510185e+001
3.610303e+003,8.291003e+000
3.612231e+003,1.668021e+001
3.614160e+003,2.696798e+001
3.616088e+003,3.676739e+001
3.618017e+003,4.091545e+001
3.619945e+003,3.952058e+001
3.621874e+003,3.315132e+001
3.623802e+003,2.752323e+001
3.625730e+003,3.144559e+001
3.627659e+003,3.506035e+001
3.629587e+003,3.396625e+001
3.631516e+003,3.179397e+001
3.633444e+003,2.904636e+001
3.635373e+003,3.026090e+001
3.637301e+003,3.395646e+001
3.639230e+003,3.894713e+001
3.641158e+003,4.174129e+001
3.643087e+003,3.814601e+001
3.645015e+003,3.568996e+001
3.646944e+003,3.545430e+001
3.648872e+003,3.527137e+001
3.650801e+003,3.509381e+001
3.652729e+003,3.585463e+001
3.654657e+003,3.565381e+001
3.656586e+003,3.126966e+001
3.658514e+003,2.903918e+001
3.660443e+003,3.072562e+001
3.662371e+003,2.880006e+001
3.664300e+003,2.459245e+001
3.666228e+003,2.791864e+001
3.668157e+003,3.327439e+001
3.670085e+003,3.566895e+001
3.672014e+003,3.692792e+001
3.673942e+003,3.782435e+001
3.675871e+003,3.603732e+001
3.677799e+003,3.182791e+001
3.679728e+003,2.641861e+001
3.681656e+003,2.328471e+001
3.683584e+003,2.901756e+001
3.685513e+003,3.306190e+001
3.687441e+003,3.125477e+001
3.689370e+003,3.042360e+001
3.691298e+003,3.143829e+001
3.693227e+003,3.717182e+001
3.695155e+003,4.277153e+001
3.697084e+003,4.141407e+001
3.699012e+003,3.828211e+001
3.700941e+003,3.456209e+001
3.702869e+003,3.490958e+001
3.704798e+003,3.935087e+001
3.706726e+003,3.990366e+001
3.708655e+003,3.828128e+001
3.710583e+003,3.693588e+001
3.712511e+003,3.463817e+001
3.714440e+003,2.971902e+001
3.716368e+003,2.940653e+001
3.718297e+003,3.401398e+001
3.720225e+003,3.587980e+001
3.722154e+003,3.578510e+001
3.724082e+003,3.373499e+001
3.726011e+003,3.298327e+001
3.727939e+003,3.601855e+001
3.729868e+003,3.492135e+001
3.731796e+003,2.963838e+001
3.733725e+003,2.845173e+001
3.735653e+003,2.891261e+001
3.737582e+003,2.596791e+001
3.739510e+003,2.725712e+001
3.741438e+003,3.788474e+001
3.743367e+003,4.177615e+001
3.745295e+003,3.885944e+001
3.747224e+003,3.894431e+001
3.749152e+003,3.890805e+001
3.751081e+003,3.419438e+001
3.753009e+003,3.035807e+001
3.754938e+003,2.874715e+001
3.756866e+003,3.181882e+001
3.758795e+003,3.761689e+001
3.760723e+003,3.581792e+001
3.762652e+003,3.269007e+001
3.764580e+003,3.398350e+001
3.766509e+003,3.585698e+001
3.768437e+003,3.760339e+001
3.770365e+003,3.803645e+001
3.772294e+003,3.693211e+001
3.774222e+003,3.206162e+001
3.776151e+003,2.844578e+001
3.778079e+003,3.026195e+001
3.780008e+003,3.260782e+001
3.781936e+003,3.474071e+001
3.783865e+003,3.333714e+001
3.785793e+003,3.072695e+001
3.787722e+003,3.200070e+001
3.789650e+003,3.359261e+001
3.791579e+003,3.284248e+001
3.793507e+003,3.595364e+001
3.795436e+003,4.255531e+001
3.797364e+003,4.014371e+001
3.799292e+003,3.459970e+001
3.801221e+003,3.365976e+001
3.803149e+003,3.263833e+001
3.805078e+003,2.954657e+001
3.807006e+003,2.797601e+001
3.808935e+003,2.812853e+001
3.810863e+003,3.108348e+001
3.812792e+003,3.417367e+001
3.814720e+003,3.588697e+001
3.816649e+003,3.418402e+001
3.818577e+003,2.705001e+001
3.820506e+003,3.352097e+001
3.822434e+003,4.358754e+001
3.824363e+003,3.158703e+001
3.826291e+003,2.392911e+001
3.828219e+003,3.668219e+001
3.830148e+003,4.259365e+001
3.832076e+003,3.903503e+001
3.834005e+003,3.407306e+001
3.835933e+003,2.969558e+001
3.837862e+003,2.795188e+001
3.839790e+003,2.805936e+001
3.841719e+003,2.981240e+001
3.843647e+003,3.213564e+001
3.845576e+003,3.402794e+001
3.847504e+003,3.075535e+001
3.849433e+003,2.873861e+001
3.851361e+003,3.477982e+001
3.853290e+003,3.643982e+001
3.855218e+003,3.302323e+001
3.857146e+003,3.009692e+001
3.859075e+003,2.820951e+001
3.861003e+003,2.831336e+001
3.862932e+003,2.850734e+001
3.864860e+003,2.744009e+001
3.866789e+003,3.134480e+001
3.868717e+003,3.753436e+001
3.870646e+003,3.671898e+001
3.872574e+003,3.514864e+001
3.874503e+003,3.740099e+001
3.876431e+003,3.639470e+001
3.878360e+003,3.191542e+001
3.880288e+003,3.884894e+001
3.882217e+003,4.698672e+001
3.884145e+003,4.105585e+001
3.886073e+003,3.672826e+001
3.888002e+003,3.901137e+001
3.889930e+003,3.703614e+001
3.891859e+003,3.288852e+001
3.893787e+003,3.256716e+001
3.895716e+003,3.300761e+001
3.897644e+003,3.205143e+001
3.899573e+003,3.515203e+001
3.901501e+003,4.154041e+001
3.903430e+003,3.839626e+001
3.905358e+003,3.362733e+001
3.907287e+003,3.504559e+001
3.909215e+003,3.733579e+001
3.911144e+003,3.948846e+001
3.913072e+003,4.092706e+001
3.915000e+003,4.095543e+001
3.916929e+003,3.734502e+001
3.918857e+003,3.400078e+001
3.920786e+003,3.283867e+001
3.922714e+003,3.014642e+001
3.924643e+003,2.700006e+001
3.926571e+003,2.660297e+001
3.928500e+003,2.882056e+001
3.930428e+003,3.570134e+001
3.932357e+003,3.506932e+001
3.934285e+003,2.762312e+001
3.936214e+003,2.912132e+001
3.938142e+003,3.285241e+001
3.940071e+003,3.148269e+001
3.941999e+003,3.208673e+001
3.943927e+003,3.650029e+001
3.945856e+003,3.511215e+001
3.947784e+003,3.258068e+001
3.949713e+003,3.795168e+001
3.951641e+003,3.964180e+001
3.953570e+003,3.412016e+001
3.955498e+003,3.125581e+001
3.957427e+003,3.074277e+001
3.959355e+003,3.033715e+001
3.961284e+003,3.135914e+001
3.963212e+003,3.587445e+001
3.965141e+003,3.707829e+001
3.967069e+003,3.518034e+001
3.968998e+003,3.133814e+001
3.970926e+003,2.953247e+001
3.972854e+003,3.459693e+001
3.974783e+003,3.384928e+001
3.976711e+003,2.788227e+001
3.978640e+003,3.188284e+001
3.980568e+003,3.717312e+001
3.982497e+003,3.488393e+001
3.984425e+003,3.336496e+001
3.986354e+003,3.423837e+001
3.988282e+003,3.325578e+001
3.990211e+003,3.183113e+001
3.992139e+003,3.147620e+001
3.994068e+003,3.241472e+001
3.995996e+003,3.465707e+001
3.997925e+003,3.029354e+001
3.999853e+003,2.557180e+001
4.001781e+003,3.466167e+001
4.003710e+003,3.831703e+001
4.005638e+003,2.985019e+001
4.007567e+003,3.063292e+001
4.009495e+003,3.532133e+001
4.011424e+003,2.756663e+001
4.013352e+003,2.345260e+001
4.015281e+003,3.386927e+001
4.017209e+003,3.749445e+001
4.019138e+003,3.546967e+001
4.021066e+003,2.918366e+001
4.022995e+003,2.585173e+001
4.024923e+003,2.919696e+001
4.026852e+003,3.076160e+001
4.028780e+003,3.057891e+001
4.030708e+003,3.013214e+001
4.032637e+003,3.158549e+001
4.034565e+003,3.728275e+001
4.036494e+003,3.836064e+001
4.038422e+003,3.591965e+001
4.040351e+003,3.944727e+001
4.042279e+003,4.014263e+001
4.044208e+003,2.756325e+001
4.046136e+003,2.515198e+001
4.048065e+003,3.153395e+001
4.049993e+003,3.766265e+001
4.051922e+003,3.902548e+001
4.053850e+003,3.153491e+001
4.055779e+003,2.731164e+001
4.057707e+003,2.699408e+001
4.059635e+003,2.890313e+001
4.061564e+003,3.010531e+001
4.063492e+003,2.881995e+001
4.065421e+003,2.427690e+001
4.067349e+003,1.837288e+001
4.069278e+003,2.327141e+001
4.071206e+003,3.041843e+001
4.073135e+003,3.585733e+001
4.075063e+003,3.512016e+001
4.076992e+003,2.940930e+001
4.078920e+003,2.534622e+001
4.080849e+003,2.301824e+001
4.082777e+003,2.193787e+001
4.084706e+003,2.625141e+001
4.086634e+003,3.278417e+001
4.088563e+003,2.476290e+001
4.090491e+003,2.001046e+001
4.092419e+003,3.053026e+001
4.094348e+003,3.259690e+001
4.096276e+003,2.725693e+001
4.098205e+003,2.659536e+001
4.100133e+003,2.671314e+001
4.102062e+003,2.536285e+001
4.103990e+003,2.548055e+001
4.105919e+003,2.660156e+001
4.107847e+003,2.720603e+001
4.109776e+003,2.653263e+001
4.111704e+003,2.310021e+001
4.113633e+003,2.102789e+001
4.115561e+003,2.094545e+001
4.117490e+003,2.409624e+001
4.119418e+003,2.960328e+001
4.121347e+003,3.805802e+001
4.123275e+003,3.464059e+001
4.125204e+003,2.594973e+001
4.127132e+003,2.643415e+001
4.129061e+003,2.624306e+001
4.130989e+003,2.242606e+001
4.132917e+003,2.682736e+001
4.134846e+003,3.314168e+001
4.136774e+003,2.990974e+001
4.138703e+003,2.823610e+001
4.140631e+003,3.098185e+001
4.142560e+003,2.849008e+001
4.144488e+003,2.581805e+001
4.146417e+003,3.089202e+001
4.148345e+003,3.221368e+001
4.150273e+003,2.818075e+001
4.152202e+003,2.888580e+001
4.154130e+003,3.072778e+001
4.156059e+003,3.106709e+001
4.157987e+003,2.854208e+001
4.159916e+003,2.470666e+001
4.161844e+003,3.192650e+001
4.163773e+003,3.661105e+001
4.165701e+003,2.545787e+001
4.167630e+003,2.597936e+001
4.169558e+003,3.349979e+001
4.171487e+003,2.900522e+001
4.173415e+003,2.449857e+001
4.175344e+003,2.509334e+001
4.177272e+003,2.621177e+001
4.179201e+003,2.707371e+001
4.181129e+003,2.504800e+001
4.183058e+003,2.808695e+001
4.184986e+003,3.759792e+001
4.186915e+003,3.503265e+001
4.188843e+003,2.811768e+001
4.190771e+003,2.631325e+001
4.192700e+003,2.410262e+001
4.194628e+003,2.120870e+001
4.196557e+003,3.346281e+001
4.198485e+003,4.098965e+001
4.200414e+003,2.496722e+001
4.202342e+003,1.950748e+001
4.204271e+003,2.486230e+001
4.206199e+003,2.914608e+001
4.208127e+003,3.109637e+001
4.210056e+003,2.941797e+001
4.211984e+003,2.817046e+001
4.213913e+003,2.788062e+001
4.215841e+003,3.069831e+001
4.217770e+003,3.125048e+001
4.219698e+003,2.764300e+001
4.221627e+003,2.608398e+001
4.223555e+003,2.618172e+001
4.225484e+003,2.865907e+001
4.227412e+003,2.954969e+001
4.229341e+003,2.862298e+001
4.231269e+003,2.740716e+001
4.233198e+003,2.735534e+001
4.235126e+003,3.173410e+001
4.237055e+003,2.885294e+001
4.238983e+003,2.213588e+001
4.240912e+003,1.889558e+001
4.242840e+003,2.197596e+001
4.244769e+003,3.359161e+001
4.246697e+003,3.377104e+001
4.248625e+003,3.004955e+001
4.250554e+003,3.052748e+001
