1.159199e+002,4.973189e+002
1.178484e+002,5.936765e+002
1.197769e+002,6.953358e+002
1.217053e+002,8.029109e+002
1.236338e+002,8.885889e+002
1.255623e+002,9.422590e+002
1.274907e+002,9.803773e+002
1.294192e+002,1.019136e+003
1.313477e+002,1.061720e+003
1.332761e+002,1.100070e+003
1.352046e+002,1.138548e+003
1.371331e+002,1.180299e+003
1.390615e+002,1.190421e+003
1.409900e+002,1.152230e+003
1.429185e+002,1.077831e+003
1.448469e+002,9.825179e+002
1.467754e+002,8.350362e+002
1.487039e+002,6.945272e+002
1.506323e+002,5.899578e+002
1.525608e+002,5.210314e+002
1.544893e+002,4.653301e+002
1.564177e+002,4.203376e+002
1.583462e+002,3.849400e+002
1.602747e+002,3.531483e+002
1.622031e+002,3.244403e+002
1.641316e+002,2.996808e+002
1.660601e+002,2.785672e+002
1.679885e+002,2.606131e+002
1.699170e+002,2.465385e+002
1.718455e+002,2.361048e+002
1.737739e+002,2.294072e+002
1.757024e+002,2.245856e+002
1.776309e+002,2.245148e+002
1.795593e+002,2.243968e+002
1.814878e+002,2.203324e+002
1.834163e+002,2.045406e+002
1.853447e+002,1.927435e+002
1.872732e+002,1.869899e+002
1.892017e+002,1.868186e+002
1.911301e+002,1.933190e+002
1.930586e+002,2.119684e+002
1.949871e+002,2.358151e+002
1.969155e+002,2.564226e+002
1.988440e+002,2.804959e+002
2.007725e+002,2.963192e+002
2.027009e+002,2.990994e+002
2.046294e+002,2.895232e+002
2.065579e+002,2.732059e+002
2.084864e+002,2.460524e+002
2.104148e+002,2.132284e+002
2.123433e+002,1.863842e+002
2.142718e+002,1.661771e+002
2.162002e+002,1.504194e+002
2.181287e+002,1.379295e+002
2.200572e+002,1.295880e+002
2.219856e+002,1.226494e+002
2.239141e+002,1.176172e+002
2.258426e+002,1.138704e+002
2.277710e+002,1.094666e+002
2.296995e+002,1.031473e+002
2.316280e+002,9.773053e+001
2.335564e+002,9.446092e+001
2.354849e+002,9.550119e+001
2.374134e+002,9.597691e+001
2.393418e+002,9.550308e+001
2.412703e+002,9.443183e+001
2.431988e+002,9.358730e+001
2.451272e+002,9.386156e+001
2.470557e+002,9.361712e+001
2.489842e+002,9.150094e+001
2.509126e+002,8.536835e+001
2.528411e+002,8.184833e+001
2.547696e+002,8.418376e+001
2.566980e+002,9.014149e+001
2.586265e+002,9.398267e+001
2.605550e+002,9.394765e+001
2.624834e+002,9.283988e+001
2.644119e+002,9.178205e+001
2.663404e+002,9.066515e+001
2.682688e+002,8.998175e+001
2.701973e+002,9.004983e+001
2.721258e+002,9.067295e+001
2.740542e+002,9.115588e+001
2.759827e+002,9.124241e+001
2.779112e+002,9.130206e+001
2.798396e+002,9.122593e+001
2.817681e+002,9.066887e+001
2.836966e+002,9.138641e+001
2.856250e+002,9.502079e+001
2.875535e+002,1.005988e+002
2.894820e+002,1.037886e+002
2.914104e+002,1.018127e+002
2.933389e+002,1.003276e+002
2.952674e+002,1.018816e+002
2.971958e+002,1.065329e+002
2.991243e+002,1.133412e+002
3.010528e+002,1.238971e+002
3.029813e+002,1.365183e+002
3.049097e+002,1.461236e+002
3.068382e+002,1.532117e+002
3.087667e+002,1.567092e+002
3.106951e+002,1.560261e+002
3.126236e+002,1.500741e+002
3.145521e+002,1.429858e+002
3.164805e+002,1.336181e+002
3.184090e+002,1.237338e+002
3.203375e+002,1.168063e+002
3.222659e+002,1.139470e+002
3.241944e+002,1.125648e+002
3.261229e+002,1.119400e+002
3.280513e+002,1.131773e+002
3.299798e+002,1.120924e+002
3.319083e+002,1.047869e+002
3.338367e+002,9.655709e+001
3.357652e+002,9.433369e+001
3.376937e+002,1.008436e+002
3.396221e+002,1.090414e+002
3.415506e+002,1.168244e+002
3.434791e+002,1.241463e+002
3.454075e+002,1.307578e+002
3.473360e+002,1.376996e+002
3.492645e+002,1.433192e+002
3.511929e+002,1.466123e+002
3.531214e+002,1.472401e+002
3.550499e+002,1.459305e+002
3.569783e+002,1.425451e+002
3.589068e+002,1.370527e+002
3.608353e+002,1.315378e+002
3.627637e+002,1.257549e+002
3.646922e+002,1.201872e+002
3.666207e+002,1.149708e+002
3.685491e+002,1.098183e+002
3.704776e+002,1.058122e+002
3.724061e+002,1.034720e+002
3.743345e+002,1.024930e+002
3.762630e+002,1.014510e+002
3.781915e+002,9.963933e+001
3.801199e+002,9.860835e+001
3.820484e+002,9.929587e+001
3.839769e+002,1.031400e+002
3.859053e+002,1.050072e+002
3.878338e+002,1.015577e+002
3.897623e+002,9.684257e+001
3.916907e+002,9.759727e+001
3.936192e+002,1.076262e+002
3.955477e+002,1.164051e+002
3.974761e+002,1.201657e+002
3.994046e+002,1.178527e+002
4.013331e+002,1.160095e+002
4.032615e+002,1.152437e+002
4.051900e+002,1.146396e+002
4.071185e+002,1.134254e+002
4.090469e+002,1.114235e+002
4.109754e+002,1.095704e+002
4.129039e+002,1.078393e+002
4.148323e+002,1.063549e+002
4.167608e+002,1.058499e+002
4.186893e+002,1.060100e+002
4.206177e+002,1.072327e+002
4.225462e+002,1.104650e+002
4.244747e+002,1.163064e+002
4.264032e+002,1.197922e+002
4.283316e+002,1.193636e+002
4.302601e+002,1.164798e+002
4.321886e+002,1.129707e+002
4.341170e+002,1.064303e+002
4.360455e+002,1.028991e+002
4.379740e+002,1.059858e+002
4.399024e+002,1.149646e+002
4.418309e+002,1.225527e+002
4.437594e+002,1.239590e+002
4.456878e+002,1.265426e+002
4.476163e+002,1.362862e+002
4.495448e+002,1.540110e+002
4.514732e+002,1.739191e+002
4.534017e+002,1.994608e+002
4.553302e+002,2.264578e+002
4.572586e+002,2.445931e+002
4.591871e+002,2.549220e+002
4.611156e+002,2.553240e+002
4.630440e+002,2.393596e+002
4.649725e+002,2.075465e+002
4.669010e+002,1.809550e+002
4.688294e+002,1.643095e+002
4.707579e+002,1.529128e+002
4.726864e+002,1.431077e+002
4.746148e+002,1.342538e+002
4.765433e+002,1.280094e+002
4.784718e+002,1.265135e+002
4.804002e+002,1.278745e+002
4.823287e+002,1.269676e+002
4.842572e+002,1.214419e+002
4.861856e+002,1.164330e+002
4.881141e+002,1.140838e+002
4.900426e+002,1.151816e+002
4.919710e+002,1.166614e+002
4.938995e+002,1.186932e+002
4.958280e+002,1.210515e+002
4.977564e+002,1.235937e+002
4.996849e+002,1.264508e+002
5.016134e+002,1.291372e+002
5.035418e+002,1.318433e+002
5.054703e+002,1.343729e+002
5.073988e+002,1.358444e+002
5.093272e+002,1.325178e+002
5.112557e+002,1.317129e+002
5.131842e+002,1.391897e+002
5.151127e+002,1.543445e+002
5.170411e+002,1.635203e+002
5.189696e+002,1.605098e+002
5.208981e+002,1.531647e+002
5.228265e+002,1.473666e+002
5.247550e+002,1.442458e+002
5.266835e+002,1.404719e+002
5.286119e+002,1.339905e+002
5.305404e+002,1.268075e+002
5.324689e+002,1.224428e+002
5.343973e+002,1.229777e+002
5.363258e+002,1.243647e+002
5.382543e+002,1.258833e+002
5.401827e+002,1.275041e+002
5.421112e+002,1.279225e+002
5.440397e+002,1.252266e+002
5.459681e+002,1.227518e+002
5.478966e+002,1.226659e+002
5.498251e+002,1.259515e+002
5.517535e+002,1.284167e+002
5.536820e+002,1.284873e+002
5.556105e+002,1.279008e+002
5.575389e+002,1.300390e+002
5.594674e+002,1.375750e+002
5.613959e+002,1.424383e+002
5.633243e+002,1.400197e+002
5.652528e+002,1.322774e+002
5.671813e+002,1.272874e+002
5.691097e+002,1.276035e+002
5.710382e+002,1.286782e+002
5.729667e+002,1.281073e+002
5.748951e+002,1.255458e+002
5.768236e+002,1.258515e+002
5.787521e+002,1.332645e+002
5.806805e+002,1.412036e+002
5.826090e+002,1.440835e+002
5.845375e+002,1.373511e+002
5.864659e+002,1.342358e+002
5.883944e+002,1.367334e+002
5.903229e+002,1.435776e+002
5.922513e+002,1.530905e+002
5.941798e+002,1.692600e+002
5.961083e+002,1.802946e+002
5.980367e+002,1.790766e+002
5.999652e+002,1.671461e+002
6.018937e+002,1.610316e+002
6.038221e+002,1.589737e+002
6.057506e+002,1.638244e+002
6.076791e+002,1.841567e+002
6.096075e+002,2.201398e+002
6.115360e+002,2.398832e+002
6.134645e+002,2.293571e+002
6.153929e+002,2.071219e+002
6.173214e+002,1.859809e+002
6.192499e+002,1.634819e+002
6.211783e+002,1.476375e+002
6.231068e+002,1.422484e+002
6.250353e+002,1.426644e+002
6.269637e+002,1.416148e+002
6.288922e+002,1.383665e+002
6.308207e+002,1.356844e+002
6.327491e+002,1.344068e+002
6.346776e+002,1.343138e+002
6.366061e+002,1.348588e+002
6.385345e+002,1.370253e+002
6.404630e+002,1.386803e+002
6.423915e+002,1.387268e+002
6.443199e+002,1.373304e+002
6.462484e+002,1.365147e+002
6.481769e+002,1.380280e+002
6.501053e+002,1.385528e+002
6.520338e+002,1.355897e+002
6.539623e+002,1.262689e+002
6.558907e+002,1.221227e+002
6.578192e+002,1.267984e+002
6.597477e+002,1.342472e+002
6.616761e+002,1.382098e+002
6.636046e+002,1.376569e+002
6.655331e+002,1.392903e+002
6.674615e+002,1.476728e+002
6.693900e+002,1.583260e+002
6.713185e+002,1.654840e+002
6.732469e+002,1.677693e+002
6.751754e+002,1.678329e+002
6.771039e+002,1.643169e+002
6.790323e+002,1.586739e+002
6.809608e+002,1.548026e+002
6.828893e+002,1.531616e+002
6.848177e+002,1.525176e+002
6.867462e+002,1.524078e+002
6.886747e+002,1.527867e+002
6.906031e+002,1.536057e+002
6.925316e+002,1.567651e+002
6.944601e+002,1.585627e+002
6.963885e+002,1.570835e+002
6.983170e+002,1.524620e+002
7.002455e+002,1.470654e+002
7.021740e+002,1.391785e+002
7.041024e+002,1.325249e+002
7.060309e+002,1.291657e+002
7.079594e+002,1.297272e+002
7.098878e+002,1.318016e+002
7.118163e+002,1.377115e+002
7.137448e+002,1.433863e+002
7.156732e+002,1.443705e+002
7.176017e+002,1.400738e+002
7.195302e+002,1.368354e+002
7.214586e+002,1.354605e+002
7.233871e+002,1.362399e+002
7.253156e+002,1.393337e+002
7.272440e+002,1.435064e+002
7.291725e+002,1.527641e+002
7.311010e+002,1.703086e+002
7.330294e+002,1.924070e+002
7.349579e+002,2.142134e+002
7.368864e+002,2.408298e+002
7.388149e+002,2.554987e+002
7.407433e+002,2.447513e+002
7.426718e+002,2.184960e+002
7.446003e+002,1.978853e+002
7.465287e+002,1.873634e+002
7.484572e+002,1.779779e+002
7.503857e+002,1.674589e+002
7.523141e+002,1.567772e+002
7.542426e+002,1.494719e+002
7.561711e+002,1.467027e+002
7.580995e+002,1.454367e+002
7.600280e+002,1.443700e+002
7.619565e+002,1.436509e+002
7.638849e+002,1.445038e+002
7.658134e+002,1.468222e+002
7.677419e+002,1.509328e+002
7.696703e+002,1.579580e+002
7.715988e+002,1.678537e+002
7.735273e+002,1.760014e+002
7.754557e+002,1.844604e+002
7.773842e+002,1.888324e+002
7.793127e+002,1.849434e+002
7.812411e+002,1.735581e+002
7.831696e+002,1.653832e+002
7.850981e+002,1.640102e+002
7.870266e+002,1.640417e+002
7.889550e+002,1.629800e+002
7.908835e+002,1.604189e+002
7.928120e+002,1.599491e+002
7.947404e+002,1.615977e+002
7.966689e+002,1.654000e+002
7.985974e+002,1.710767e+002
8.005258e+002,1.785044e+002
8.024543e+002,1.887773e+002
8.043828e+002,2.032659e+002
8.063112e+002,2.196753e+002
8.082397e+002,2.378070e+002
8.101682e+002,2.594008e+002
8.120966e+002,2.757097e+002
8.140251e+002,2.830356e+002
8.159536e+002,2.878351e+002
8.178820e+002,2.959930e+002
8.198105e+002,3.079794e+002
8.217390e+002,3.143519e+002
8.236674e+002,3.148300e+002
8.255959e+002,3.079611e+002
8.275244e+002,2.907492e+002
8.294528e+002,2.565575e+002
8.313813e+002,2.286326e+002
8.333098e+002,2.034722e+002
8.352382e+002,1.864130e+002
8.371667e+002,1.851167e+002
8.390952e+002,1.996604e+002
8.410236e+002,2.123109e+002
8.429521e+002,2.216067e+002
8.448806e+002,2.259800e+002
8.468090e+002,2.236935e+002
8.487375e+002,2.119017e+002
8.506660e+002,2.005061e+002
8.525944e+002,1.875117e+002
8.545229e+002,1.764167e+002
8.564514e+002,1.711683e+002
8.583798e+002,1.719936e+002
8.603083e+002,1.717285e+002
8.622368e+002,1.679922e+002
8.641652e+002,1.639664e+002
8.660937e+002,1.613376e+002
8.680222e+002,1.598861e+002
8.699506e+002,1.610273e+002
8.718791e+002,1.692941e+002
8.738076e+002,1.763983e+002
8.757360e+002,1.756428e+002
8.776645e+002,1.657586e+002
8.795930e+002,1.590618e+002
8.815214e+002,1.577194e+002
8.834499e+002,1.586275e+002
8.853784e+002,1.605735e+002
8.873068e+002,1.636084e+002
8.892353e+002,1.653855e+002
8.911638e+002,1.621437e+002
8.930922e+002,1.605679e+002
8.950207e+002,1.651789e+002
8.969492e+002,1.771080e+002
8.988776e+002,1.844854e+002
9.008061e+002,1.815980e+002
9.027346e+002,1.796124e+002
9.046630e+002,1.884133e+002
9.065915e+002,2.045149e+002
9.085200e+002,2.088821e+002
9.104484e+002,1.899403e+002
9.123769e+002,1.715722e+002
9.143054e+002,1.640164e+002
9.162338e+002,1.667465e+002
9.181623e+002,1.677961e+002
9.200908e+002,1.647480e+002
9.220192e+002,1.628228e+002
9.239477e+002,1.656164e+002
9.258762e+002,1.709822e+002
9.278046e+002,1.708194e+002
9.297331e+002,1.591871e+002
9.316616e+002,1.523796e+002
9.335900e+002,1.591839e+002
9.355185e+002,1.753458e+002
9.374470e+002,1.892899e+002
9.393754e+002,2.015338e+002
9.413039e+002,2.104935e+002
9.432324e+002,2.161115e+002
9.451608e+002,2.183459e+002
9.470893e+002,2.167753e+002
9.490178e+002,2.112007e+002
9.509462e+002,2.035686e+002
9.528747e+002,1.901819e+002
9.548032e+002,1.771151e+002
9.567316e+002,1.720291e+002
9.586601e+002,1.780133e+002
9.605886e+002,1.814596e+002
9.625170e+002,1.765501e+002
9.644455e+002,1.704486e+002
9.663740e+002,1.695813e+002
9.683024e+002,1.763499e+002
9.702309e+002,1.827710e+002
9.721594e+002,1.852514e+002
9.740878e+002,1.901508e+002
9.760163e+002,2.006750e+002
9.779448e+002,2.165524e+002
9.798733e+002,2.409930e+002
9.818018e+002,2.721850e+002
9.837302e+002,3.156285e+002
9.856587e+002,3.678777e+002
9.875872e+002,4.281693e+002
9.895156e+002,5.234158e+002
9.914441e+002,7.341129e+002
9.933726e+002,8.884257e+002
9.953010e+002,9.285413e+002
9.972295e+002,8.664793e+002
9.991580e+002,7.534816e+002
1.001086e+003,5.516618e+002
1.003015e+003,3.784478e+002
1.004943e+003,2.805783e+002
1.006872e+003,2.347571e+002
1.008800e+003,2.110917e+002
1.010729e+003,2.166633e+002
1.012657e+003,2.275971e+002
1.014586e+003,2.396161e+002
1.016514e+003,2.542041e+002
1.018443e+003,2.739946e+002
1.020371e+003,3.036399e+002
1.022300e+003,3.267505e+002
1.024228e+003,3.480658e+002
1.026156e+003,3.587146e+002
1.028085e+003,3.487873e+002
1.030013e+003,3.204439e+002
1.031942e+003,2.899652e+002
1.033870e+003,2.534491e+002
1.035799e+003,2.229946e+002
1.037727e+003,2.058132e+002
1.039656e+003,2.008290e+002
1.041584e+003,1.934113e+002
1.043513e+003,1.776806e+002
1.045441e+003,1.663862e+002
1.047370e+003,1.640053e+002
1.049298e+003,1.677911e+002
1.051227e+003,1.717607e+002
1.053155e+003,1.765553e+002
1.055083e+003,1.799428e+002
1.057012e+003,1.801223e+002
1.058940e+003,1.793842e+002
1.060869e+003,1.798305e+002
1.062797e+003,1.815332e+002
1.064726e+003,1.838273e+002
1.066654e+003,1.881112e+002
1.068583e+003,1.914687e+002
1.070511e+003,1.923210e+002
1.072440e+003,1.905227e+002
1.074368e+003,1.870478e+002
1.076297e+003,1.786192e+002
1.078225e+003,1.724848e+002
1.080154e+003,1.732334e+002
1.082082e+003,1.782870e+002
1.084010e+003,1.798305e+002
1.085939e+003,1.763452e+002
1.087867e+003,1.734881e+002
1.089796e+003,1.728466e+002
1.091724e+003,1.738978e+002
1.093653e+003,1.769443e+002
1.095581e+003,1.837316e+002
1.097510e+003,1.862789e+002
1.099438e+003,1.785015e+002
1.101367e+003,1.708552e+002
1.103295e+003,1.716875e+002
1.105224e+003,1.821577e+002
1.107152e+003,1.867953e+002
1.109081e+003,1.786388e+002
1.111009e+003,1.728092e+002
1.112938e+003,1.779711e+002
1.114866e+003,1.890258e+002
1.116794e+003,1.935463e+002
1.118723e+003,1.881504e+002
1.120651e+003,1.844791e+002
1.122580e+003,1.886522e+002
1.124508e+003,1.947863e+002
1.126437e+003,1.968773e+002
1.128365e+003,1.936917e+002
1.130294e+003,1.903091e+002
1.132222e+003,1.840208e+002
1.134151e+003,1.805453e+002
1.136079e+003,1.840794e+002
1.138008e+003,1.943399e+002
1.139936e+003,2.040181e+002
1.141865e+003,2.119290e+002
1.143793e+003,2.208742e+002
1.145721e+003,2.347919e+002
1.147650e+003,2.489718e+002
1.149578e+003,2.557430e+002
1.151507e+003,2.532746e+002
1.153435e+003,2.511219e+002
1.155364e+003,2.548388e+002
1.157292e+003,2.570295e+002
1.159221e+003,2.520893e+002
1.161149e+003,2.388954e+002
1.163078e+003,2.279303e+002
1.165006e+003,2.167527e+002
1.166935e+003,2.105582e+002
1.168863e+003,2.124745e+002
1.170792e+003,2.205512e+002
1.172720e+003,2.302902e+002
1.174648e+003,2.439943e+002
1.176577e+003,2.531828e+002
1.178505e+003,2.550069e+002
1.180434e+003,2.521757e+002
1.182362e+003,2.462593e+002
1.184291e+003,2.373632e+002
1.186219e+003,2.280128e+002
1.188148e+003,2.127366e+002
1.190076e+003,2.056113e+002
1.192005e+003,2.130434e+002
1.193933e+003,2.327234e+002
1.195862e+003,2.572176e+002
1.197790e+003,2.913823e+002
1.199719e+003,3.227652e+002
1.201647e+003,3.547910e+002
1.203575e+003,3.803807e+002
1.205504e+003,3.929867e+002
1.207432e+003,3.913976e+002
1.209361e+003,3.808903e+002
1.211289e+003,3.548028e+002
1.213218e+003,3.278664e+002
1.215146e+003,3.056128e+002
1.217075e+003,2.870895e+002
1.219003e+003,2.707372e+002
1.220932e+003,2.573545e+002
1.222860e+003,2.433198e+002
1.224789e+003,2.234731e+002
1.226717e+003,2.059965e+002
1.228646e+003,1.977330e+002
1.230574e+003,1.995458e+002
1.232502e+003,2.012532e+002
1.234431e+003,2.025157e+002
1.236359e+003,2.035910e+002
1.238288e+003,2.043436e+002
1.240216e+003,2.049812e+002
1.242145e+003,2.060907e+002
1.244073e+003,2.083715e+002
1.246002e+003,2.095489e+002
1.247930e+003,2.097884e+002
1.249859e+003,2.087427e+002
1.251787e+003,2.045463e+002
1.253716e+003,1.984756e+002
1.255644e+003,1.968593e+002
1.257573e+003,2.028256e+002
1.259501e+003,2.070123e+002
1.261429e+003,2.025497e+002
1.263358e+003,1.963420e+002
1.265286e+003,1.973770e+002
1.267215e+003,2.074849e+002
1.269143e+003,2.127254e+002
1.271072e+003,2.069028e+002
1.273000e+003,2.006065e+002
1.274929e+003,1.948269e+002
1.276857e+003,1.914720e+002
1.278786e+003,1.969485e+002
1.280714e+003,2.235330e+002
1.282643e+003,2.414180e+002
1.284571e+003,2.440918e+002
1.286500e+003,2.426471e+002
1.288428e+003,2.439008e+002
1.290356e+003,2.481443e+002
1.292285e+003,2.575285e+002
1.294213e+003,2.740770e+002
1.296142e+003,2.920564e+002
1.298070e+003,3.180131e+002
1.299999e+003,3.390518e+002
1.301927e+003,3.382200e+002
1.303856e+003,3.140084e+002
1.305784e+003,2.915307e+002
1.307713e+003,2.716204e+002
1.309641e+003,2.583850e+002
1.311570e+003,2.572921e+002
1.313498e+003,2.634778e+002
1.315427e+003,2.632178e+002
1.317355e+003,2.507916e+002
1.319283e+003,2.446855e+002
1.321212e+003,2.494946e+002
1.323140e+003,2.577609e+002
1.325069e+003,2.666159e+002
1.326997e+003,2.756421e+002
1.328926e+003,2.802331e+002
1.330854e+003,2.773816e+002
1.332783e+003,2.751852e+002
1.334711e+003,2.772027e+002
1.336640e+003,2.788373e+002
1.338568e+003,2.736500e+002
1.340497e+003,2.625737e+002
1.342425e+003,2.576327e+002
1.344354e+003,2.646266e+002
1.346282e+003,2.686942e+002
1.348210e+003,2.601287e+002
1.350139e+003,2.475502e+002
1.352068e+003,2.419060e+002
1.353996e+003,2.437831e+002
1.355924e+003,2.427381e+002
1.357853e+003,2.329343e+002
1.359781e+003,2.262215e+002
1.361710e+003,2.311423e+002
1.363638e+003,2.410620e+002
1.365567e+003,2.419476e+002
1.367495e+003,2.292934e+002
1.369424e+003,2.200675e+002
1.371352e+003,2.176598e+002
1.373281e+003,2.162348e+002
1.375209e+003,2.125250e+002
1.377138e+003,2.077116e+002
1.379066e+003,2.055717e+002
1.380995e+003,2.061571e+002
1.382923e+003,2.092110e+002
1.384851e+003,2.191208e+002
1.386780e+003,2.272224e+002
1.388708e+003,2.249658e+002
1.390637e+003,2.158093e+002
1.392565e+003,2.144072e+002
1.394494e+003,2.224319e+002
1.396422e+003,2.330582e+002
1.398351e+003,2.493850e+002
1.400279e+003,2.636115e+002
1.402208e+003,2.707715e+002
1.404136e+003,2.714363e+002
1.406065e+003,2.655736e+002
1.407993e+003,2.496884e+002
1.409922e+003,2.378197e+002
1.411850e+003,2.388523e+002
1.413778e+003,2.410137e+002
1.415707e+003,2.331894e+002
1.417635e+003,2.172094e+002
1.419564e+003,2.127533e+002
1.421492e+003,2.248015e+002
1.423421e+003,2.399204e+002
1.425349e+003,2.584120e+002
1.427278e+003,2.762609e+002
1.429206e+003,2.905037e+002
1.431135e+003,3.010054e+002
1.433063e+003,3.082177e+002
1.434992e+003,3.119110e+002
1.436920e+003,3.121266e+002
1.438849e+003,3.096245e+002
1.440777e+003,3.031324e+002
1.442705e+003,2.891566e+002
1.444634e+003,2.684448e+002
1.446562e+003,2.541282e+002
1.448491e+003,2.488388e+002
1.450419e+003,2.449167e+002
1.452348e+003,2.415442e+002
1.454276e+003,2.385873e+002
1.456205e+003,2.361102e+002
1.458133e+003,2.339578e+002
1.460062e+003,2.312702e+002
1.461990e+003,2.272259e+002
1.463919e+003,2.247466e+002
1.465847e+003,2.241458e+002
1.467776e+003,2.258998e+002
1.469704e+003,2.318889e+002
1.471632e+003,2.406475e+002
1.473561e+003,2.467663e+002
1.475489e+003,2.490042e+002
1.477418e+003,2.521624e+002
1.479346e+003,2.609695e+002
1.481275e+003,2.672430e+002
1.483203e+003,2.640058e+002
1.485132e+003,2.538587e+002
1.487060e+003,2.468257e+002
1.488989e+003,2.434847e+002
1.490917e+003,2.420090e+002
1.492846e+003,2.467202e+002
1.494774e+003,2.483670e+002
1.496703e+003,2.387905e+002
1.498631e+003,2.230695e+002
1.500559e+003,2.165390e+002
1.502488e+003,2.225374e+002
1.504416e+003,2.281591e+002
1.506345e+003,2.340792e+002
1.508273e+003,2.373933e+002
1.510202e+003,2.354356e+002
1.512130e+003,2.305661e+002
1.514059e+003,2.269211e+002
1.515987e+003,2.237705e+002
1.517916e+003,2.244314e+002
1.519844e+003,2.341952e+002
1.521773e+003,2.409657e+002
1.523701e+003,2.380828e+002
1.525630e+003,2.318626e+002
1.527558e+003,2.315791e+002
1.529486e+003,2.383657e+002
1.531415e+003,2.394635e+002
1.533343e+003,2.266737e+002
1.535272e+003,2.193249e+002
1.537200e+003,2.261593e+002
1.539129e+003,2.361632e+002
1.541057e+003,2.395622e+002
1.542986e+003,2.370273e+002
1.544914e+003,2.344055e+002
1.546843e+003,2.309864e+002
1.548771e+003,2.296361e+002
1.550700e+003,2.331320e+002
1.552628e+003,2.367532e+002
1.554557e+003,2.369079e+002
1.556485e+003,2.348570e+002
1.558413e+003,2.331256e+002
1.560342e+003,2.309256e+002
1.562270e+003,2.341571e+002
1.564199e+003,2.483495e+002
1.566127e+003,2.615886e+002
1.568056e+003,2.655775e+002
1.569984e+003,2.667651e+002
1.571913e+003,2.732067e+002
1.573841e+003,2.848717e+002
1.575770e+003,3.019446e+002
1.577698e+003,3.330745e+002
1.579627e+003,3.495741e+002
1.581555e+003,3.273111e+002
1.583484e+003,2.983441e+002
1.585412e+003,2.854212e+002
1.587340e+003,2.874118e+002
1.589269e+003,3.025364e+002
1.591197e+003,3.357787e+002
1.593126e+003,3.611145e+002
1.595054e+003,3.685210e+002
1.596983e+003,3.714489e+002
1.598911e+003,3.794156e+002
1.600840e+003,3.869669e+002
1.602768e+003,3.834572e+002
1.604697e+003,3.683991e+002
1.606625e+003,3.464314e+002
1.608554e+003,3.102138e+002
1.610482e+003,2.817940e+002
1.612411e+003,2.714495e+002
1.614339e+003,2.698276e+002
1.616267e+003,2.710212e+002
1.618196e+003,2.745855e+002
1.620124e+003,2.760485e+002
1.622053e+003,2.754190e+002
1.623981e+003,2.725993e+002
1.625910e+003,2.642743e+002
1.627838e+003,2.572316e+002
1.629767e+003,2.556859e+002
1.631695e+003,2.570367e+002
1.633624e+003,2.559683e+002
1.635552e+003,2.517550e+002
1.637481e+003,2.504208e+002
1.639409e+003,2.550514e+002
1.641338e+003,2.581825e+002
1.643266e+003,2.582889e+002
1.645194e+003,2.561927e+002
1.647123e+003,2.509713e+002
1.649051e+003,2.436607e+002
1.650980e+003,2.407557e+002
1.652908e+003,2.444971e+002
1.654837e+003,2.456950e+002
1.656765e+003,2.387854e+002
1.658694e+003,2.345504e+002
1.660622e+003,2.402673e+002
1.662551e+003,2.484544e+002
1.664479e+003,2.491436e+002
1.666408e+003,2.420506e+002
1.668336e+003,2.368219e+002
1.670265e+003,2.331692e+002
1.672193e+003,2.323107e+002
1.674121e+003,2.376631e+002
1.676050e+003,2.421510e+002
1.677978e+003,2.400412e+002
1.679907e+003,2.348545e+002
1.681835e+003,2.346435e+002
1.683764e+003,2.409989e+002
1.685692e+003,2.435585e+002
1.687621e+003,2.369077e+002
1.689549e+003,2.345373e+002
1.691478e+003,2.487918e+002
1.693406e+003,2.589164e+002
1.695335e+003,2.422147e+002
1.697263e+003,2.100211e+002
1.699192e+003,2.019360e+002
1.701120e+003,2.271520e+002
1.703048e+003,2.427408e+002
1.704977e+003,2.383474e+002
1.706905e+003,2.349282e+002
1.708834e+003,2.385702e+002
1.710762e+003,2.443018e+002
1.712691e+003,2.484686e+002
1.714619e+003,2.511151e+002
1.716548e+003,2.524702e+002
1.718476e+003,2.525385e+002
1.720405e+003,2.519491e+002
1.722333e+003,2.559567e+002
1.724262e+003,2.523205e+002
1.726190e+003,2.245214e+002
1.728119e+003,1.978307e+002
1.730047e+003,2.013274e+002
1.731975e+003,2.300913e+002
1.733904e+003,2.462518e+002
1.735832e+003,2.467013e+002
1.737761e+003,2.450790e+002
1.739689e+003,2.405171e+002
1.741618e+003,2.376811e+002
1.743546e+003,2.389242e+002
1.745475e+003,2.419091e+002
1.747403e+003,2.452195e+002
1.749332e+003,2.484456e+002
1.751260e+003,2.483718e+002
1.753189e+003,2.439068e+002
1.755117e+003,2.406419e+002
1.757046e+003,2.388899e+002
1.758974e+003,2.394524e+002
1.760902e+003,2.461004e+002
1.762831e+003,2.523961e+002
1.764759e+003,2.499636e+002
1.766688e+003,2.417778e+002
1.768616e+003,2.424451e+002
1.770545e+003,2.540462e+002
1.772473e+003,2.624659e+002
1.774402e+003,2.647889e+002
1.776330e+003,2.646760e+002
1.778259e+003,2.625659e+002
1.780187e+003,2.593691e+002
1.782116e+003,2.547330e+002
1.784044e+003,2.498509e+002
1.785973e+003,2.486062e+002
1.787901e+003,2.514214e+002
1.789829e+003,2.529155e+002
1.791758e+003,2.519640e+002
1.793686e+003,2.508055e+002
1.795615e+003,2.500868e+002
1.797543e+003,2.495763e+002
1.799472e+003,2.484679e+002
1.801400e+003,2.476928e+002
1.803329e+003,2.498560e+002
1.805257e+003,2.547907e+002
1.807186e+003,2.567805e+002
1.809114e+003,2.543718e+002
1.811043e+003,2.515828e+002
1.812971e+003,2.473842e+002
1.814900e+003,2.456613e+002
1.816828e+003,2.525777e+002
1.818756e+003,2.609486e+002
1.820685e+003,2.590200e+002
1.822613e+003,2.484273e+002
1.824542e+003,2.412042e+002
1.826470e+003,2.368045e+002
1.828399e+003,2.387319e+002
1.830327e+003,2.565732e+002
1.832256e+003,2.689005e+002
1.834184e+003,2.671458e+002
1.836113e+003,2.573285e+002
1.838041e+003,2.391072e+002
1.839970e+003,2.176210e+002
1.841898e+003,2.134150e+002
1.843827e+003,2.332691e+002
1.845755e+003,2.458009e+002
1.847684e+003,2.443161e+002
1.849612e+003,2.453507e+002
1.851541e+003,2.560477e+002
1.853469e+003,2.652544e+002
1.855397e+003,2.640677e+002
1.857326e+003,2.577596e+002
1.859254e+003,2.552059e+002
1.861183e+003,2.564588e+002
1.863111e+003,2.571802e+002
1.865040e+003,2.581670e+002
1.866968e+003,2.570858e+002
1.868897e+003,2.500775e+002
1.870825e+003,2.461517e+002
1.872754e+003,2.509511e+002
1.874682e+003,2.572020e+002
1.876611e+003,2.587165e+002
1.878539e+003,2.568845e+002
1.880468e+003,2.551712e+002
1.882396e+003,2.534501e+002
1.884324e+003,2.542213e+002
1.886253e+003,2.594225e+002
1.888181e+003,2.617118e+002
1.890110e+003,2.558701e+002
1.892038e+003,2.516237e+002
1.893967e+003,2.553168e+002
1.895895e+003,2.618882e+002
1.897824e+003,2.681043e+002
1.899752e+003,2.727879e+002
1.901681e+003,2.726007e+002
1.903609e+003,2.676082e+002
1.905538e+003,2.540914e+002
1.907466e+003,2.226546e+002
1.909395e+003,2.059028e+002
1.911323e+003,2.259238e+002
1.913251e+003,2.489940e+002
1.915180e+003,2.562976e+002
1.917108e+003,2.564714e+002
1.919037e+003,2.611390e+002
1.920965e+003,2.689304e+002
1.922894e+003,2.721223e+002
1.924822e+003,2.711440e+002
1.926751e+003,2.642131e+002
1.928679e+003,2.398483e+002
1.930608e+003,2.267370e+002
1.932536e+003,2.420276e+002
1.934465e+003,2.562080e+002
1.936393e+003,2.463970e+002
1.938322e+003,2.298246e+002
1.940250e+003,2.344531e+002
1.942178e+003,2.554315e+002
1.944107e+003,2.541289e+002
1.946035e+003,2.198646e+002
1.947964e+003,2.092260e+002
1.949892e+003,2.405222e+002
1.951821e+003,2.647255e+002
1.953749e+003,2.657047e+002
1.955678e+003,2.634716e+002
1.957606e+003,2.727650e+002
1.959535e+003,2.797906e+002
1.961463e+003,2.596910e+002
1.963392e+003,2.255200e+002
1.965320e+003,2.258931e+002
1.967249e+003,2.625546e+002
1.969177e+003,2.737919e+002
1.971105e+003,2.414569e+002
1.973034e+003,2.227041e+002
1.974962e+003,2.431255e+002
1.976891e+003,2.645826e+002
1.978819e+003,2.735811e+002
1.980748e+003,2.725558e+002
1.982676e+003,2.538388e+002
1.984605e+003,2.294117e+002
1.986533e+003,2.345573e+002
1.988462e+003,2.722112e+002
1.990390e+003,2.849674e+002
1.992319e+003,2.443872e+002
1.994247e+003,2.290384e+002
1.996176e+003,2.692943e+002
1.998104e+003,2.926392e+002
2.000032e+003,2.588001e+002
2.001961e+003,2.261005e+002
2.003889e+003,2.381982e+002
2.005818e+003,2.706828e+002
2.007746e+003,2.910069e+002
2.009675e+003,2.997190e+002
2.011603e+003,2.993669e+002
2.013532e+003,2.890181e+002
2.015460e+003,2.834250e+002
2.017389e+003,2.878522e+002
2.019317e+003,2.840833e+002
2.021246e+003,2.569363e+002
2.023174e+003,2.381647e+002
2.025103e+003,2.558147e+002
2.027031e+003,2.760398e+002
2.028959e+003,2.609944e+002
2.030888e+003,2.319984e+002
2.032816e+003,2.338746e+002
2.034745e+003,2.642951e+002
2.036673e+003,2.827218e+002
2.038602e+003,2.855132e+002
2.040530e+003,2.873458e+002
2.042459e+003,2.888771e+002
2.044387e+003,2.890393e+002
2.046316e+003,2.867331e+002
2.048244e+003,2.841913e+002
2.050173e+003,2.817017e+002
2.052101e+003,2.800350e+002
2.054030e+003,2.834526e+002
2.055958e+003,2.870060e+002
2.057886e+003,2.727089e+002
2.059815e+003,2.441633e+002
2.061743e+003,2.450930e+002
2.063672e+003,2.827711e+002
2.065600e+003,2.994211e+002
2.067529e+003,2.757975e+002
2.069457e+003,2.616190e+002
2.071386e+003,2.855100e+002
2.073314e+003,3.029270e+002
2.075243e+003,2.794510e+002
2.077171e+003,2.523323e+002
2.079100e+003,2.597450e+002
2.081028e+003,2.853442e+002
2.082957e+003,2.976401e+002
2.084885e+003,2.975958e+002
2.086813e+003,2.987919e+002
2.088742e+003,3.063571e+002
2.090670e+003,2.981840e+002
2.092599e+003,2.601830e+002
2.094527e+003,2.345083e+002
2.096456e+003,2.268148e+002
2.098384e+003,2.331605e+002
2.100313e+003,2.666520e+002
2.102241e+003,2.978593e+002
2.104170e+003,3.061472e+002
2.106098e+003,3.021656e+002
2.108027e+003,2.944571e+002
2.109955e+003,2.865131e+002
2.111884e+003,2.937101e+002
2.113812e+003,3.159568e+002
2.115740e+003,3.174495e+002
2.117669e+003,2.880161e+002
2.119597e+003,2.645479e+002
2.121526e+003,2.453909e+002
2.123454e+003,2.414446e+002
2.125383e+003,2.674229e+002
2.127311e+003,2.934320e+002
2.129240e+003,3.063463e+002
2.131168e+003,3.115376e+002
2.133097e+003,3.139517e+002
2.135025e+003,3.117672e+002
2.136954e+003,2.963001e+002
2.138882e+003,2.727292e+002
2.140811e+003,2.686532e+002
2.142739e+003,2.845641e+002
2.144667e+003,2.996346e+002
2.146596e+003,3.131538e+002
2.148524e+003,3.206007e+002
2.150453e+003,3.186846e+002
2.152381e+003,3.151819e+002
2.154310e+003,3.096251e+002
2.156238e+003,3.065755e+002
2.158167e+003,3.166939e+002
2.160095e+003,3.221108e+002
2.162024e+003,2.936111e+002
2.163952e+003,2.570219e+002
2.165881e+003,2.646255e+002
2.167809e+003,3.064208e+002
2.169738e+003,3.246577e+002
2.171666e+003,3.189797e+002
2.173594e+003,3.045994e+002
2.175523e+003,2.796914e+002
2.177451e+003,2.612591e+002
2.179380e+003,2.497471e+002
2.181308e+003,2.514759e+002
2.183237e+003,2.801213e+002
2.185165e+003,3.050642e+002
2.187094e+003,3.132474e+002
2.189022e+003,3.133508e+002
2.190951e+003,3.097787e+002
2.192879e+003,3.031021e+002
2.194808e+003,2.930230e+002
2.196736e+003,2.804561e+002
2.198665e+003,2.656622e+002
2.200593e+003,2.489906e+002
2.202521e+003,2.480435e+002
2.204450e+003,2.647993e+002
2.206378e+003,2.706112e+002
2.208307e+003,2.585153e+002
2.210235e+003,2.591184e+002
2.212164e+003,2.897960e+002
2.214092e+003,3.071738e+002
2.216021e+003,2.854331e+002
2.217949e+003,2.624547e+002
2.219878e+003,2.495171e+002
2.221806e+003,2.486527e+002
2.223735e+003,2.695556e+002
2.225663e+003,2.971322e+002
2.227592e+003,3.123722e+002
2.229520e+003,3.177985e+002
2.231448e+003,3.197153e+002
2.233377e+003,3.183570e+002
2.235305e+003,3.162811e+002
2.237234e+003,3.137549e+002
2.239162e+003,3.032073e+002
2.241091e+003,2.802471e+002
2.243019e+003,2.725475e+002
2.244948e+003,2.967607e+002
2.246876e+003,3.093711e+002
2.248805e+003,2.814563e+002
2.250733e+003,2.641281e+002
2.252662e+003,2.937791e+002
2.254590e+003,3.191759e+002
2.256519e+003,2.982686e+002
2.258447e+003,2.672778e+002
2.260375e+003,2.594171e+002
2.262304e+003,2.675702e+002
2.264232e+003,2.856425e+002
2.266161e+003,3.082823e+002
2.268089e+003,3.167526e+002
2.270018e+003,3.128139e+002
2.271946e+003,3.177009e+002
2.273875e+003,3.355779e+002
2.275803e+003,3.286022e+002
2.277732e+003,2.684239e+002
2.279660e+003,2.432412e+002
2.281589e+003,2.921039e+002
2.283517e+003,3.246397e+002
2.285446e+003,3.206814e+002
2.287374e+003,3.067751e+002
2.289302e+003,2.798379e+002
2.291231e+003,2.596492e+002
2.293159e+003,2.636283e+002
2.295088e+003,2.717560e+002
2.297016e+003,2.638432e+002
2.298945e+003,2.520560e+002
2.300873e+003,2.548906e+002
2.302802e+003,2.662096e+002
2.304730e+003,2.715670e+002
2.306659e+003,2.712605e+002
2.308587e+003,2.649840e+002
2.310516e+003,2.497302e+002
2.312444e+003,2.586857e+002
2.314373e+003,3.003727e+002
2.316301e+003,3.116136e+002
2.318229e+003,2.753300e+002
2.320158e+003,2.615512e+002
2.322086e+003,2.983279e+002
2.324015e+003,3.212185e+002
2.325943e+003,2.913497e+002
2.327872e+003,2.709979e+002
2.329800e+003,2.970235e+002
2.331729e+003,3.220366e+002
2.333657e+003,3.144668e+002
2.335586e+003,2.981362e+002
2.337514e+003,2.876456e+002
2.339443e+003,2.848211e+002
2.341371e+003,2.997377e+002
2.343300e+003,3.198071e+002
2.345228e+003,3.145311e+002
2.347156e+003,2.948823e+002
2.349085e+003,2.987803e+002
2.351013e+003,3.244041e+002
2.352942e+003,3.388773e+002
2.354870e+003,3.406581e+002
2.356799e+003,3.417250e+002
2.358727e+003,3.423629e+002
2.360656e+003,3.421954e+002
2.362584e+003,3.441465e+002
2.364513e+003,3.349236e+002
2.366441e+003,3.053426e+002
2.368370e+003,2.834553e+002
2.370298e+003,2.784863e+002
2.372227e+003,2.800574e+002
2.374155e+003,2.896544e+002
2.376083e+003,2.969259e+002
2.378012e+003,2.906571e+002
2.379940e+003,2.872614e+002
2.381869e+003,3.029713e+002
2.383797e+003,3.231135e+002
2.385726e+003,3.402391e+002
2.387654e+003,3.471075e+002
2.389583e+003,3.228853e+002
2.391511e+003,2.859917e+002
2.393440e+003,2.714121e+002
2.395368e+003,2.761538e+002
2.397297e+003,2.945012e+002
2.399225e+003,3.240192e+002
2.401154e+003,3.294016e+002
2.403082e+003,3.058343e+002
2.405010e+003,2.975142e+002
2.406939e+003,3.091989e+002
2.408867e+003,3.111650e+002
2.410796e+003,2.994291e+002
2.412724e+003,2.893417e+002
2.414653e+003,2.791705e+002
2.416581e+003,2.860242e+002
2.418510e+003,3.289933e+002
2.420438e+003,3.598284e+002
2.422367e+003,3.645757e+002
2.424295e+003,3.557797e+002
2.426224e+003,3.249139e+002
2.428152e+003,2.988653e+002
2.430081e+003,2.861106e+002
2.432009e+003,2.871419e+002
2.433938e+003,3.172060e+002
2.435866e+003,3.437119e+002
2.437794e+003,3.317052e+002
2.439723e+003,3.110050e+002
2.441651e+003,3.193040e+002
2.443580e+003,3.362601e+002
2.445508e+003,3.272646e+002
2.447437e+003,3.043748e+002
2.449365e+003,2.920679e+002
2.451294e+003,2.901489e+002
2.453222e+003,3.045113e+002
2.455151e+003,3.288274e+002
2.457079e+003,3.304980e+002
2.459008e+003,3.111539e+002
2.460936e+003,2.980272e+002
2.462865e+003,2.926294e+002
2.464793e+003,2.885341e+002
2.466721e+003,2.826028e+002
2.468650e+003,2.903059e+002
2.470578e+003,3.189682e+002
2.472507e+003,3.296285e+002
2.474435e+003,3.143868e+002
2.476364e+003,2.979755e+002
2.478292e+003,2.820267e+002
2.480221e+003,2.741974e+002
2.482149e+003,2.762433e+002
2.484078e+003,2.871978e+002
2.486006e+003,3.172219e+002
2.487935e+003,3.403790e+002
2.489863e+003,3.529077e+002
2.491792e+003,3.504690e+002
2.493720e+003,3.192156e+002
2.495648e+003,2.912138e+002
2.497577e+003,2.847532e+002
2.499505e+003,2.863462e+002
2.501434e+003,2.852197e+002
2.503362e+003,2.907196e+002
2.505291e+003,3.208509e+002
2.507219e+003,3.511115e+002
2.509148e+003,3.558290e+002
2.511076e+003,3.466234e+002
2.513005e+003,3.281250e+002
2.514933e+003,3.122115e+002
2.516862e+003,3.246244e+002
2.518790e+003,3.463543e+002
2.520719e+003,3.381600e+002
2.522647e+003,3.122506e+002
2.524575e+003,2.969466e+002
2.526504e+003,2.932101e+002
2.528432e+003,3.118169e+002
2.530361e+003,3.463919e+002
2.532289e+003,3.576667e+002
2.534218e+003,3.495258e+002
2.536146e+003,3.542141e+002
2.538075e+003,3.719669e+002
2.540003e+003,3.618691e+002
2.541932e+003,3.173853e+002
2.543860e+003,3.041688e+002
2.545789e+003,3.299385e+002
2.547717e+003,3.343416e+002
2.549646e+003,3.129948e+002
2.551574e+003,2.983924e+002
2.553502e+003,2.926598e+002
2.555431e+003,3.019598e+002
2.557359e+003,3.375023e+002
2.559288e+003,3.577906e+002
2.561216e+003,3.537011e+002
2.563145e+003,3.428454e+002
2.565073e+003,3.207908e+002
2.567002e+003,3.073983e+002
2.568930e+003,3.081537e+002
2.570859e+003,3.113336e+002
2.572787e+003,3.152363e+002
2.574716e+003,3.184538e+002
2.576644e+003,3.145279e+002
2.578573e+003,3.196155e+002
2.580501e+003,3.493572e+002
2.582429e+003,3.700502e+002
2.584358e+003,3.694607e+002
2.586287e+003,3.654214e+002
2.588215e+003,3.691355e+002
2.590144e+003,3.635321e+002
2.592072e+003,3.293115e+002
2.594000e+003,3.006041e+002
2.595929e+003,2.918393e+002
2.597857e+003,2.960524e+002
2.599786e+003,3.250309e+002
2.601714e+003,3.450139e+002
2.603643e+003,3.308402e+002
2.605571e+003,3.112542e+002
2.607500e+003,3.048324e+002
2.609428e+003,3.009435e+002
2.611357e+003,2.832879e+002
2.613285e+003,2.750864e+002
2.615214e+003,3.067941e+002
2.617142e+003,3.437202e+002
2.619071e+003,3.559213e+002
2.620999e+003,3.591517e+002
2.622927e+003,3.717159e+002
2.624856e+003,3.770231e+002
2.626784e+003,3.501947e+002
2.628713e+003,3.151649e+002
2.630641e+003,2.905923e+002
2.632570e+003,2.813401e+002
2.634498e+003,3.099093e+002
2.636427e+003,3.420915e+002
2.638355e+003,3.248196e+002
2.640284e+003,2.959905e+002
2.642212e+003,3.137104e+002
2.644141e+003,3.445321e+002
2.646069e+003,3.357109e+002
2.647998e+003,3.081387e+002
2.649926e+003,2.865670e+002
2.651854e+003,2.767728e+002
2.653783e+003,2.963022e+002
2.655711e+003,3.286899e+002
2.657640e+003,3.573724e+002
2.659568e+003,3.738985e+002
2.661497e+003,3.511086e+002
2.663425e+003,3.116958e+002
2.665354e+003,3.036266e+002
2.667282e+003,3.126996e+002
2.669211e+003,3.046893e+002
2.671139e+003,2.939383e+002
2.673068e+003,3.202318e+002
2.674996e+003,3.580089e+002
2.676925e+003,3.392321e+002
2.678853e+003,2.943133e+002
2.680781e+003,3.045745e+002
2.682710e+003,3.424948e+002
2.684638e+003,3.340231e+002
2.686567e+003,3.052599e+002
2.688495e+003,3.160539e+002
2.690424e+003,3.489801e+002
2.692352e+003,3.653051e+002
2.694281e+003,3.690765e+002
2.696209e+003,3.681787e+002
2.698138e+003,3.639330e+002
2.700066e+003,3.613539e+002
2.701995e+003,3.569209e+002
2.703923e+003,3.355675e+002
2.705852e+003,3.102474e+002
2.707780e+003,3.160631e+002
2.709708e+003,3.411878e+002
2.711637e+003,3.614663e+002
2.713565e+003,3.745174e+002
2.715494e+003,3.690621e+002
2.717422e+003,3.559210e+002
2.719351e+003,3.631898e+002
2.721279e+003,3.756552e+002
2.723208e+003,3.484243e+002
2.725136e+003,3.084692e+002
2.727065e+003,3.270985e+002
2.728993e+003,3.685360e+002
2.730922e+003,3.486846e+002
2.732850e+003,3.089483e+002
2.734779e+003,3.293706e+002
2.736707e+003,3.755620e+002
2.738635e+003,3.899551e+002
2.740564e+003,3.802347e+002
2.742492e+003,3.423327e+002
2.744421e+003,3.046141e+002
2.746349e+003,3.213289e+002
2.748278e+003,3.554210e+002
2.750206e+003,3.521075e+002
2.752135e+003,3.325790e+002
2.754063e+003,3.192737e+002
2.755992e+003,3.162589e+002
2.757920e+003,3.435770e+002
2.759849e+003,3.697979e+002
2.761777e+003,3.482338e+002
2.763706e+003,3.189081e+002
2.765634e+003,3.293906e+002
2.767563e+003,3.541448e+002
2.769491e+003,3.785929e+002
2.771419e+003,3.886603e+002
2.773348e+003,3.605508e+002
2.775276e+003,3.254907e+002
2.777205e+003,3.007639e+002
2.779133e+003,2.932809e+002
2.781062e+003,3.276671e+002
2.782990e+003,3.585694e+002
2.784919e+003,3.423950e+002
2.786847e+003,3.207866e+002
2.788776e+003,3.213753e+002
2.790704e+003,3.232317e+002
2.792633e+003,3.036856e+002
2.794561e+003,2.952694e+002
2.796490e+003,3.342408e+002
2.798418e+003,3.625364e+002
2.800346e+003,3.447896e+002
2.802275e+003,3.300703e+002
2.804203e+003,3.455806e+002
2.806132e+003,3.634331e+002
2.808060e+003,3.831441e+002
2.809989e+003,3.837869e+002
2.811917e+003,3.450840e+002
2.813846e+003,3.183477e+002
2.815774e+003,3.201711e+002
2.817703e+003,3.329257e+002
2.819631e+003,3.691713e+002
2.821560e+003,3.821648e+002
2.823488e+003,3.505882e+002
2.825417e+003,3.284216e+002
2.827345e+003,3.209859e+002
2.829273e+003,3.341001e+002
2.831202e+003,3.828819e+002
2.833130e+003,4.050152e+002
2.835059e+003,3.709879e+002
2.836987e+003,3.689354e+002
2.838916e+003,4.068672e+002
2.840844e+003,4.346764e+002
2.842773e+003,4.473294e+002
2.844701e+003,4.542377e+002
2.846630e+003,4.541173e+002
2.848558e+003,4.657655e+002
2.850487e+003,4.905126e+002
2.852415e+003,4.968361e+002
2.854344e+003,4.863235e+002
2.856272e+003,4.783063e+002
2.858200e+003,4.722188e+002
2.860129e+003,4.562374e+002
2.862057e+003,4.327582e+002
2.863986e+003,4.168278e+002
2.865914e+003,4.055440e+002
2.867843e+003,3.898170e+002
2.869771e+003,3.710334e+002
2.871700e+003,3.417729e+002
2.873628e+003,3.195198e+002
2.875557e+003,3.528828e+002
2.877485e+003,4.035836e+002
2.879414e+003,4.160325e+002
2.881342e+003,4.077247e+002
2.883271e+003,3.884632e+002
2.885199e+003,3.693331e+002
2.887127e+003,3.532410e+002
2.889056e+003,3.529689e+002
2.890984e+003,3.995360e+002
2.892913e+003,4.359177e+002
2.894841e+003,4.085087e+002
2.896770e+003,3.867443e+002
2.898698e+003,4.080218e+002
2.900627e+003,4.447005e+002
2.902555e+003,4.943953e+002
2.904484e+003,5.390843e+002
2.906412e+003,5.642742e+002
2.908341e+003,6.057814e+002
2.910269e+003,6.840381e+002
2.912198e+003,7.615516e+002
2.914126e+003,8.340587e+002
2.916054e+003,9.098324e+002
2.917983e+003,9.946796e+002
2.919911e+003,1.051302e+003
2.921840e+003,1.080831e+003
2.923768e+003,1.042632e+003
2.925697e+003,9.290287e+002
2.927625e+003,8.151377e+002
2.929554e+003,7.076781e+002
2.931482e+003,6.768135e+002
2.933411e+003,7.124780e+002
2.935339e+003,7.322559e+002
2.937268e+003,7.366632e+002
2.939196e+003,7.190352e+002
2.941125e+003,6.930771e+002
2.943053e+003,6.976985e+002
2.944981e+003,7.113527e+002
2.946910e+003,6.985106e+002
2.948838e+003,6.736641e+002
2.950767e+003,6.556138e+002
2.952695e+003,6.352640e+002
2.954624e+003,5.843324e+002
2.956552e+003,5.559402e+002
2.958481e+003,6.102455e+002
2.960409e+003,6.672729e+002
2.962338e+003,6.980750e+002
2.964266e+003,6.944471e+002
2.966195e+003,6.362766e+002
2.968123e+003,5.823151e+002
2.970052e+003,5.535913e+002
2.971980e+003,5.290164e+002
2.973908e+003,5.049583e+002
2.975837e+003,4.883137e+002
2.977765e+003,4.810748e+002
2.979694e+003,4.716615e+002
2.981622e+003,4.579491e+002
2.983551e+003,4.461798e+002
2.985479e+003,4.363026e+002
2.987408e+003,4.191985e+002
2.989336e+003,3.981097e+002
2.991265e+003,3.893482e+002
2.993193e+003,3.927251e+002
2.995122e+003,4.101003e+002
2.997050e+003,4.373951e+002
2.998979e+003,4.712234e+002
3.000907e+003,5.040715e+002
3.002835e+003,5.342531e+002
3.004764e+003,5.492306e+002
3.006692e+003,5.214147e+002
3.008621e+003,4.940020e+002
3.010549e+003,5.020569e+002
3.012478e+003,5.059958e+002
3.014406e+003,4.789410e+002
3.016335e+003,4.551448e+002
3.018263e+003,4.366296e+002
3.020192e+003,4.440316e+002
3.022120e+003,4.859619e+002
3.024049e+003,5.283524e+002
3.025977e+003,5.603215e+002
3.027906e+003,6.155589e+002
3.029834e+003,6.990617e+002
3.031762e+003,7.798331e+002
3.033691e+003,8.536022e+002
3.035619e+003,8.802705e+002
3.037548e+003,8.691857e+002
3.039476e+003,8.650757e+002
3.041405e+003,8.567313e+002
3.043333e+003,7.894783e+002
3.045262e+003,7.241733e+002
3.047190e+003,7.211080e+002
3.049119e+003,7.894396e+002
3.051047e+003,9.896542e+002
3.052976e+003,1.192607e+003
3.054904e+003,1.332671e+003
3.056833e+003,1.421379e+003
3.058761e+003,1.450558e+003
3.060689e+003,1.456615e+003
3.062618e+003,1.472554e+003
3.064546e+003,1.407646e+003
3.066475e+003,1.240361e+003
3.068403e+003,1.060429e+003
3.070332e+003,8.688480e+002
3.072260e+003,7.218752e+002
3.074189e+003,6.191949e+002
3.076117e+003,5.686838e+002
3.078046e+003,5.543513e+002
3.079974e+003,5.007706e+002
3.081903e+003,4.390529e+002
3.083831e+003,4.555198e+002
3.085760e+003,4.958133e+002
3.087688e+003,4.931913e+002
3.089616e+003,4.694837e+002
3.091545e+003,4.272897e+002
3.093473e+003,3.922493e+002
3.095402e+003,3.759789e+002
3.097330e+003,3.783999e+002
3.099259e+003,4.127090e+002
3.101187e+003,4.285344e+002
3.103116e+003,4.007846e+002
3.105044e+003,3.763774e+002
3.106973e+003,3.560488e+002
3.108901e+003,3.474747e+002
3.110830e+003,3.515562e+002
3.112758e+003,3.764450e+002
3.114687e+003,4.115512e+002
3.116615e+003,3.920486e+002
3.118543e+003,3.527248e+002
3.120472e+003,3.756613e+002
3.122400e+003,4.095422e+002
3.124329e+003,3.900574e+002
3.126257e+003,3.591806e+002
3.128186e+003,3.436605e+002
3.130114e+003,3.349310e+002
3.132043e+003,3.334026e+002
3.133971e+003,3.303965e+002
3.135900e+003,3.203170e+002
3.137828e+003,3.170143e+002
3.139757e+003,3.212622e+002
3.141685e+003,3.395324e+002
3.143614e+003,3.735862e+002
3.145542e+003,3.915529e+002
3.147470e+003,3.932527e+002
3.149399e+003,3.692780e+002
3.151327e+003,3.354336e+002
3.153256e+003,3.195630e+002
3.155184e+003,3.179647e+002
3.157113e+003,3.280526e+002
3.159041e+003,3.479037e+002
3.160970e+003,3.947558e+002
3.162898e+003,4.182863e+002
3.164827e+003,3.757346e+002
3.166755e+003,3.430640e+002
3.168684e+003,3.316696e+002
3.170612e+003,3.422137e+002
3.172541e+003,3.823267e+002
3.174469e+003,3.766268e+002
3.176397e+003,3.253243e+002
3.178326e+003,3.318065e+002
3.180254e+003,3.733830e+002
3.182183e+003,3.916280e+002
3.184111e+003,3.874982e+002
3.186040e+003,3.433004e+002
3.187968e+003,3.033840e+002
3.189897e+003,3.121885e+002
3.191825e+003,3.241074e+002
3.193754e+003,3.108766e+002
3.195682e+003,3.033340e+002
3.197611e+003,3.055233e+002
3.199539e+003,3.284365e+002
3.201468e+003,3.815858e+002
3.203396e+003,3.877453e+002
3.205324e+003,3.448682e+002
3.207253e+003,3.244494e+002
3.209181e+003,3.189371e+002
3.211110e+003,2.994598e+002
3.213038e+003,2.840080e+002
3.214967e+003,3.156059e+002
3.216895e+003,3.452340e+002
3.218824e+003,3.299341e+002
3.220752e+003,3.089750e+002
3.222681e+003,2.905984e+002
3.224609e+003,2.956732e+002
3.226538e+003,3.371875e+002
3.228466e+003,3.475696e+002
3.230395e+003,3.134052e+002
3.232323e+003,3.203221e+002
3.234251e+003,3.614932e+002
3.236180e+003,3.377055e+002
3.238108e+003,2.888646e+002
3.240037e+003,3.019624e+002
3.241965e+003,3.347051e+002
3.243894e+003,3.440454e+002
3.245822e+003,3.432261e+002
3.247751e+003,3.332248e+002
3.249679e+003,3.295141e+002
3.251608e+003,3.518416e+002
3.253536e+003,3.460937e+002
3.255465e+003,3.046362e+002
3.257393e+003,2.825269e+002
3.259322e+003,2.828595e+002
3.261250e+003,2.822975e+002
3.263178e+003,2.815103e+002
3.265107e+003,2.776545e+002
3.267035e+003,2.807095e+002
3.268964e+003,3.107619e+002
3.270892e+003,3.414337e+002
3.272821e+003,3.636677e+002
3.274749e+003,3.625179e+002
3.276678e+003,3.220401e+002
3.278606e+003,2.880418e+002
3.280535e+003,2.641718e+002
3.282463e+003,2.683197e+002
3.284392e+003,2.952956e+002
3.286320e+003,2.975651e+002
3.288249e+003,2.839641e+002
3.290177e+003,2.677423e+002
3.292105e+003,2.657116e+002
3.294034e+003,3.078589e+002
3.295962e+003,3.500534e+002
3.297891e+003,3.696059e+002
3.299819e+003,3.723846e+002
3.301748e+003,3.577389e+002
3.303676e+003,3.353652e+002
3.305605e+003,3.013344e+002
3.307533e+003,3.032359e+002
3.309462e+003,3.336348e+002
3.311390e+003,3.500570e+002
3.313319e+003,3.560530e+002
3.315247e+003,3.566829e+002
3.317176e+003,3.524534e+002
3.319104e+003,3.445947e+002
3.321032e+003,3.308878e+002
3.322961e+003,2.938309e+002
3.324889e+003,2.889990e+002
3.326818e+003,3.298419e+002
3.328746e+003,3.535021e+002
3.330675e+003,3.544600e+002
3.332603e+003,3.234978e+002
3.334532e+003,2.815134e+002
3.336460e+003,2.990378e+002
3.338389e+003,3.329275e+002
3.340317e+003,3.414762e+002
3.342246e+003,3.407516e+002
3.344174e+003,3.369626e+002
3.346103e+003,3.321872e+002
3.348031e+003,3.259294e+002
3.349959e+003,3.252463e+002
3.351888e+003,3.317099e+002
3.353816e+003,3.195682e+002
3.355745e+003,2.958697e+002
3.357673e+003,2.726146e+002
3.359602e+003,2.640388e+002
3.361530e+003,3.091103e+002
3.363459e+003,3.471356e+002
3.365387e+003,3.329545e+002
3.367316e+003,3.256992e+002
3.369244e+003,3.504446e+002
3.371173e+003,3.367852e+002
3.373101e+003,2.832606e+002
3.375030e+003,2.846614e+002
3.376958e+003,3.235097e+002
3.378886e+003,3.411364e+002
3.380815e+003,3.401206e+002
3.382743e+003,3.069843e+002
3.384672e+003,2.863955e+002
3.386600e+003,3.253112e+002
3.388529e+003,3.371527e+002
3.390457e+003,2.941185e+002
3.392386e+003,2.941648e+002
3.394314e+003,3.452555e+002
3.396243e+003,3.327576e+002
3.398171e+003,2.898916e+002
3.400100e+003,2.995833e+002
3.402028e+003,3.277406e+002
3.403957e+003,3.443867e+002
3.405885e+003,3.531266e+002
3.407813e+003,3.537869e+002
3.409742e+003,3.508373e+002
3.411670e+003,3.440242e+002
3.413599e+003,3.418106e+002
3.415527e+003,3.431121e+002
3.417456e+003,3.363916e+002
3.419384e+003,3.291799e+002
3.421313e+003,3.413068e+002
3.423241e+003,3.533038e+002
3.425170e+003,3.552527e+002
3.427098e+003,3.421041e+002
3.429027e+003,3.010660e+002
3.430955e+003,3.017316e+002
3.432884e+003,3.530872e+002
3.434812e+003,3.390656e+002
3.436740e+003,2.857610e+002
3.438669e+003,2.981982e+002
3.440597e+003,3.303940e+002
3.442526e+003,3.375288e+002
3.444454e+003,3.377877e+002
3.446383e+003,3.416105e+002
3.448311e+003,3.311857e+002
3.450240e+003,2.920320e+002
3.452168e+003,3.003462e+002
3.454097e+003,3.456136e+002
3.456025e+003,3.522471e+002
3.457954e+003,3.400790e+002
3.459882e+003,3.381884e+002
3.461811e+003,3.318128e+002
3.463739e+003,3.044125e+002
3.465667e+003,2.935016e+002
3.467596e+003,3.294456e+002
3.469524e+003,3.233025e+002
3.471453e+003,2.813580e+002
3.473381e+003,2.686573e+002
3.475310e+003,2.775733e+002
3.477238e+003,3.002880e+002
3.479167e+003,3.225640e+002
3.481095e+003,3.329639e+002
3.483024e+003,3.427918e+002
3.484952e+003,3.628103e+002
3.486881e+003,3.453714e+002
3.488809e+003,2.913687e+002
3.490738e+003,2.776865e+002
3.492666e+003,2.880019e+002
3.494594e+003,2.741208e+002
3.496523e+003,2.686709e+002
3.498451e+003,3.133161e+002
3.500380e+003,3.443493e+002
3.502308e+003,3.414437e+002
3.504237e+003,3.476784e+002
3.506165e+003,3.677434e+002
3.508094e+003,3.277759e+002
3.510022e+003,2.681745e+002
3.511951e+003,2.996191e+002
3.513879e+003,3.480766e+002
3.515808e+003,3.623432e+002
3.517736e+003,3.480242e+002
3.519665e+003,2.973651e+002
3.521593e+003,2.703439e+002
3.523521e+003,2.720526e+002
3.525450e+003,3.017793e+002
3.527378e+003,3.394796e+002
3.529307e+003,3.505692e+002
3.531235e+003,3.419099e+002
3.533164e+003,3.015160e+002
3.535092e+003,2.871809e+002
3.537021e+003,3.303693e+002
3.538949e+003,3.498251e+002
3.540878e+003,3.460266e+002
3.542806e+003,3.522987e+002
3.544735e+003,3.525327e+002
3.546663e+003,2.962536e+002
3.548592e+003,2.591509e+002
3.550520e+003,2.952740e+002
3.552448e+003,3.258289e+002
3.554377e+003,3.322487e+002
3.556305e+003,3.374503e+002
3.558234e+003,3.406974e+002
3.560162e+003,3.341537e+002
3.562091e+003,3.265840e+002
3.564019e+003,3.309530e+002
3.565948e+003,3.355764e+002
3.567876e+003,3.320406e+002
3.569805e+003,3.359670e+002
3.571733e+003,3.482796e+002
3.573662e+003,3.562618e+002
3.575590e+003,3.596993e+002
3.577519e+003,3.573713e+002
3.579447e+003,3.529319e+002
3.581376e+003,3.467040e+002
3.583304e+003,3.468282e+002
3.585233e+003,3.620381e+002
3.587161e+003,3.381041e+002
3.589090e+003,2.821223e+002
3.591018e+003,2.958540e+002
3.592947e+003,3.304532e+002
3.594875e+003,3.055028e+002
3.596803e+003,2.763637e+002
3.598732e+003,2.711389e+002
3.600660e+003,2.757364e+002
3.602589e+003,2.887154e+002
3.604517e+003,2.856664e+002
3.606446e+003,2.723751e+002
3.608374e+003,2.584245e+002
3.610303e+003,2.596342e+002
3.612231e+003,3.040301e+002
3.614160e+003,3.389748e+002
3.616088e+003,3.550118e+002
3.618017e+003,3.327352e+002
3.619945e+003,2.826956e+002
3.621874e+003,2.883518e+002
3.623802e+003,3.174155e+002
3.625730e+003,3.376958e+002
3.627659e+003,3.453044e+002
3.629587e+003,3.364677e+002
3.631516e+003,3.190592e+002
3.633444e+003,2.947011e+002
3.635373e+003,3.123624e+002
3.637301e+003,3.458062e+002
3.639230e+003,3.406782e+002
3.641158e+003,3.269737e+002
3.643087e+003,3.195471e+002
3.645015e+003,3.198408e+002
3.646944e+003,3.287627e+002
3.648872e+003,3.340952e+002
3.650801e+003,3.360789e+002
3.652729e+003,3.361001e+002
3.654657e+003,3.352185e+002
3.656586e+003,3.323127e+002
3.658514e+003,3.329436e+002
3.660443e+003,3.385176e+002
3.662371e+003,3.492189e+002
3.664300e+003,3.595083e+002
3.666228e+003,3.281122e+002
3.668157e+003,2.961786e+002
3.670085e+003,3.116357e+002
3.672014e+003,3.315604e+002
3.673942e+003,3.476310e+002
3.675871e+003,3.259921e+002
3.677799e+003,2.756082e+002
3.679728e+003,2.902421e+002
3.681656e+003,3.274960e+002
3.683584e+003,3.434233e+002
3.685513e+003,3.470463e+002
3.687441e+003,3.419971e+002
3.689370e+003,3.251566e+002
3.691298e+003,2.980576e+002
3.693227e+003,2.758997e+002
3.695155e+003,2.697371e+002
3.697084e+003,3.078405e+002
3.699012e+003,3.342493e+002
3.700941e+003,3.210502e+002
3.702869e+003,3.226396e+002
3.704798e+003,3.427580e+002
3.706726e+003,3.388877e+002
3.708655e+003,3.275442e+002
3.710583e+003,3.316743e+002
3.712511e+003,3.392269e+002
3.714440e+003,3.460599e+002
3.716368e+003,3.515999e+002
3.718297e+003,3.550455e+002
3.720225e+003,3.457954e+002
3.722154e+003,3.330414e+002
3.724082e+003,3.286471e+002
3.726011e+003,3.286561e+002
3.727939e+003,3.327823e+002
3.729868e+003,3.351495e+002
3.731796e+003,3.353333e+002
3.733725e+003,3.347447e+002
3.735653e+003,3.343297e+002
3.737582e+003,3.365983e+002
3.739510e+003,3.363554e+002
3.741438e+003,3.298595e+002
3.743367e+003,3.295685e+002
3.745295e+003,3.356297e+002
3.747224e+003,3.430400e+002
3.749152e+003,3.481176e+002
3.751081e+003,3.453671e+002
3.753009e+003,3.424673e+002
3.754938e+003,3.422491e+002
3.756866e+003,3.367509e+002
3.758795e+003,3.292257e+002
3.760723e+003,3.421703e+002
3.762652e+003,3.534637e+002
3.764580e+003,3.382059e+002
3.766509e+003,3.280117e+002
3.768437e+003,3.303928e+002
3.770365e+003,3.358228e+002
3.772294e+003,3.421467e+002
3.774222e+003,3.462803e+002
3.776151e+003,3.455876e+002
3.778079e+003,3.340332e+002
3.780008e+003,3.295356e+002
3.781936e+003,3.346446e+002
3.783865e+003,3.437246e+002
3.785793e+003,3.501169e+002
3.787722e+003,3.349592e+002
3.789650e+003,3.219933e+002
3.791579e+003,3.248727e+002
3.793507e+003,3.273098e+002
3.795436e+003,3.279985e+002
3.797364e+003,3.335165e+002
3.799292e+003,3.399110e+002
3.801221e+003,3.429319e+002
3.803149e+003,3.418404e+002
3.805078e+003,3.336505e+002
3.807006e+003,3.395303e+002
3.808935e+003,3.508635e+002
3.810863e+003,3.137114e+002
3.812792e+003,2.822153e+002
3.814720e+003,3.148246e+002
3.816649e+003,3.416375e+002
3.818577e+003,3.491767e+002
3.820506e+003,3.143845e+002
3.822434e+003,2.696113e+002
3.824363e+003,2.872618e+002
3.826291e+003,3.143481e+002
3.828219e+003,3.256556e+002
3.830148e+003,3.313943e+002
3.832076e+003,3.331748e+002
3.834005e+003,3.340331e+002
3.835933e+003,3.334376e+002
3.837862e+003,3.286101e+002
3.839790e+003,3.292597e+002
3.841719e+003,3.395084e+002
3.843647e+003,3.163152e+002
3.845576e+003,2.790601e+002
3.847504e+003,2.970969e+002
3.849433e+003,3.249690e+002
3.851361e+003,3.388088e+002
3.853290e+003,3.390944e+002
3.855218e+003,3.277577e+002
3.857146e+003,3.246762e+002
3.859075e+003,3.254120e+002
3.861003e+003,3.298812e+002
3.862932e+003,3.184253e+002
3.864860e+003,2.720915e+002
3.866789e+003,2.760598e+002
3.868717e+003,3.125858e+002
3.870646e+003,3.222905e+002
3.872574e+003,3.247301e+002
3.874503e+003,3.330925e+002
3.876431e+003,3.340244e+002
3.878360e+003,3.268801e+002
3.880288e+003,3.265536e+002
3.882217e+003,3.277186e+002
3.884145e+003,3.196421e+002
3.886073e+003,3.205599e+002
3.888002e+003,3.387590e+002
3.889930e+003,3.400798e+002
3.891859e+003,3.322751e+002
3.893787e+003,3.394907e+002
3.895716e+003,3.439588e+002
3.897644e+003,3.342399e+002
3.899573e+003,3.294457e+002
3.901501e+003,3.310536e+002
3.903430e+003,3.331351e+002
3.905358e+003,3.368532e+002
3.907287e+003,3.557842e+002
3.909215e+003,3.382246e+002
3.911144e+003,2.785051e+002
3.913072e+003,2.901721e+002
3.915000e+003,3.328653e+002
3.916929e+003,3.344183e+002
3.918857e+003,3.270840e+002
3.920786e+003,3.198997e+002
3.922714e+003,3.233693e+002
3.924643e+003,3.323723e+002
3.926571e+003,3.271903e+002
3.928500e+003,3.229827e+002
3.930428e+003,3.319688e+002
3.932357e+003,3.308458e+002
3.934285e+003,3.194862e+002
3.936214e+003,3.125226e+002
3.938142e+003,3.120965e+002
3.940071e+003,3.246031e+002
3.941999e+003,3.342898e+002
3.943927e+003,3.374690e+002
3.945856e+003,3.423049e+002
3.947784e+003,3.454113e+002
3.949713e+003,3.403529e+002
3.951641e+003,3.360404e+002
3.953570e+003,3.349892e+002
3.955498e+003,3.389570e+002
3.957427e+003,3.435605e+002
3.959355e+003,3.352825e+002
3.961284e+003,3.265961e+002
3.963212e+003,3.240677e+002
3.965141e+003,3.198059e+002
3.967069e+003,3.161604e+002
3.968998e+003,3.266569e+002
3.970926e+003,3.384476e+002
3.972854e+003,3.463771e+002
3.974783e+003,3.370753e+002
3.976711e+003,3.145602e+002
3.978640e+003,3.167066e+002
3.980568e+003,3.261626e+002
3.982497e+003,3.281554e+002
3.984425e+003,3.266267e+002
3.986354e+003,3.221856e+002
3.988282e+003,3.213409e+002
3.990211e+003,3.236456e+002
3.992139e+003,3.312390e+002
3.994068e+003,3.348008e+002
3.995996e+003,3.322091e+002
3.997925e+003,3.321833e+002
3.999853e+003,3.311467e+002
4.001781e+003,3.186331e+002
4.003710e+003,3.149912e+002
4.005638e+003,3.295097e+002
4.007567e+003,2.982975e+002
4.009495e+003,2.542067e+002
4.011424e+003,2.818612e+002
4.013352e+003,3.132442e+002
4.015281e+003,3.176313e+002
4.017209e+003,3.246828e+002
4.019138e+003,3.308582e+002
4.021066e+003,3.252156e+002
4.022995e+003,3.191994e+002
4.024923e+003,3.175460e+002
4.026852e+003,3.215383e+002
4.028780e+003,3.279235e+002
4.030708e+003,3.235220e+002
4.032637e+003,3.214904e+002
4.034565e+003,3.324852e+002
4.036494e+003,3.240248e+002
4.038422e+003,3.027938e+002
4.040351e+003,3.080448e+002
4.042279e+003,3.193445e+002
4.044208e+003,3.338965e+002
4.046136e+003,3.112944e+002
4.048065e+003,2.672708e+002
4.049993e+003,2.758774e+002
4.051922e+003,2.968002e+002
4.053850e+003,3.055854e+002
4.055779e+003,3.170752e+002
4.057707e+003,3.294832e+002
4.059635e+003,3.193831e+002
4.061564e+003,3.120533e+002
4.063492e+003,3.288954e+002
4.065421e+003,3.252123e+002
4.067349e+003,3.030869e+002
4.069278e+003,2.997221e+002
4.071206e+003,3.044681e+002
4.073135e+003,3.139878e+002
4.075063e+003,3.188738e+002
4.076992e+003,3.198028e+002
4.078920e+003,3.258908e+002
4.080849e+003,3.269119e+002
4.082777e+003,3.120828e+002
4.084706e+003,3.083238e+002
4.086634e+003,3.142360e+002
4.088563e+003,3.195081e+002
4.090491e+003,3.175203e+002
4.092419e+003,3.022604e+002
4.094348e+003,2.963848e+002
4.096276e+003,3.005013e+002
4.098205e+003,3.161770e+002
4.100133e+003,3.254443e+002
4.102062e+003,3.144563e+002
4.103990e+003,3.144651e+002
4.105919e+003,3.218964e+002
4.107847e+003,3.171335e+002
4.109776e+003,3.127018e+002
4.111704e+003,3.178439e+002
4.113633e+003,3.155664e+002
4.115561e+003,3.085533e+002
4.117490e+003,3.019726e+002
4.119418e+003,3.005555e+002
4.121347e+003,3.072539e+002
4.123275e+003,3.008391e+002
4.125204e+003,2.936481e+002
4.127132e+003,3.185128e+002
4.129061e+003,3.348768e+002
4.130989e+003,3.314558e+002
4.132917e+003,3.195050e+002
4.134846e+003,3.072649e+002
4.136774e+003,3.065790e+002
4.138703e+003,3.086671e+002
4.140631e+003,3.115159e+002
4.142560e+003,3.015487e+002
4.144488e+003,2.924506e+002
4.146417e+003,3.045782e+002
4.148345e+003,3.117314e+002
4.150273e+003,3.100387e+002
4.152202e+003,3.158240e+002
4.154130e+003,3.206142e+002
4.156059e+003,3.148553e+002
4.157987e+003,3.086956e+002
4.159916e+003,3.044574e+002
4.161844e+003,3.112278e+002
4.163773e+003,3.175087e+002
4.165701e+003,3.145585e+002
4.167630e+003,3.128918e+002
4.169558e+003,3.119646e+002
4.171487e+003,3.070515e+002
4.173415e+003,3.038199e+002
4.175344e+003,3.044531e+002
4.177272e+003,3.100416e+002
4.179201e+003,3.164385e+002
4.181129e+003,3.160384e+002
4.183058e+003,3.130793e+002
4.184986e+003,3.089300e+002
4.186915e+003,3.058789e+002
4.188843e+003,3.035390e+002
4.190771e+003,2.997266e+002
4.192700e+003,3.028331e+002
4.194628e+003,3.130201e+002
4.196557e+003,3.176501e+002
4.198485e+003,3.178950e+002
4.200414e+003,3.143796e+002
4.202342e+003,3.052976e+002
4.204271e+003,2.946033e+002
4.206199e+003,3.011398e+002
4.208127e+003,3.109609e+002
4.210056e+003,3.191714e+002
4.211984e+003,3.157502e+002
4.213913e+003,3.079632e+002
4.215841e+003,3.153210e+002
4.217770e+003,3.140677e+002
4.219698e+003,2.952332e+002
4.221627e+003,3.073573e+002
4.223555e+003,3.224433e+002
4.225484e+003,3.020497e+002
4.227412e+003,2.903624e+002
4.229341e+003,2.925926e+002
4.231269e+003,3.076404e+002
4.233198e+003,3.196349e+002
4.235126e+003,3.163546e+002
4.237055e+003,3.094295e+002
4.238983e+003,3.007131e+002
4.240912e+003,2.908642e+002
4.242840e+003,2.876436e+002
4.244769e+003,2.948533e+002
4.246697e+003,2.975086e+002
4.248625e+003,2.974014e+002
4.250554e+003,2.982497e+002
