1.159199e+002,1.127089e+002
1.178484e+002,1.301381e+002
1.197769e+002,1.437525e+002
1.217053e+002,1.533521e+002
1.236338e+002,1.558393e+002
1.255623e+002,1.438412e+002
1.274907e+002,1.288410e+002
1.294192e+002,1.207430e+002
1.313477e+002,1.261032e+002
1.332761e+002,1.311572e+002
1.352046e+002,1.324801e+002
1.371331e+002,1.296040e+002
1.390615e+002,1.237629e+002
1.409900e+002,1.092114e+002
1.429185e+002,9.178141e+001
1.448469e+002,8.310863e+001
1.467754e+002,9.115779e+001
1.487039e+002,1.008034e+002
1.506323e+002,1.055602e+002
1.525608e+002,1.053715e+002
1.544893e+002,1.046561e+002
1.564177e+002,1.040502e+002
1.583462e+002,1.037226e+002
1.602747e+002,1.045095e+002
1.622031e+002,1.111534e+002
1.641316e+002,1.152538e+002
1.660601e+002,1.124033e+002
1.679885e+002,9.929356e+001
1.699170e+002,8.752091e+001
1.718455e+002,7.918328e+001
1.737739e+002,7.432625e+001
1.757024e+002,6.980913e+001
1.776309e+002,6.273464e+001
1.795593e+002,5.756795e+001
1.814878e+002,5.789222e+001
1.834163e+002,7.261380e+001
1.853447e+002,8.369065e+001
1.872732e+002,8.698887e+001
1.892017e+002,8.332770e+001
1.911301e+002,7.869527e+001
1.930586e+002,7.251144e+001
1.949871e+002,6.624982e+001
1.969155e+002,6.202876e+001
1.988440e+002,6.146378e+001
2.007725e+002,6.100945e+001
2.027009e+002,5.930505e+001
2.046294e+002,5.616566e+001
2.065579e+002,5.394698e+001
2.084864e+002,5.338358e+001
2.104148e+002,5.384572e+001
2.123433e+002,5.386776e+001
2.142718e+002,5.210400e+001
2.162002e+002,5.141854e+001
2.181287e+002,5.339158e+001
2.200572e+002,5.986182e+001
2.219856e+002,6.405934e+001
2.239141e+002,6.442926e+001
2.258426e+002,6.211653e+001
2.277710e+002,6.041600e+001
2.296995e+002,5.966717e+001
2.316280e+002,5.927427e+001
2.335564e+002,5.890420e+001
2.354849e+002,5.789492e+001
2.374134e+002,5.794656e+001
2.393418e+002,6.006733e+001
2.412703e+002,6.328761e+001
2.431988e+002,6.549042e+001
2.451272e+002,6.625864e+001
2.470557e+002,6.599285e+001
2.489842e+002,6.463531e+001
2.509126e+002,6.163806e+001
2.528411e+002,5.863241e+001
2.547696e+002,5.542342e+001
2.566980e+002,5.230321e+001
2.586265e+002,5.017979e+001
2.605550e+002,4.970795e+001
2.624834e+002,4.984129e+001
2.644119e+002,5.057623e+001
2.663404e+002,5.250675e+001
2.682688e+002,5.287745e+001
2.701973e+002,4.935525e+001
2.721258e+002,4.312063e+001
2.740542e+002,3.971077e+001
2.759827e+002,4.123901e+001
2.779112e+002,4.372606e+001
2.798396e+002,4.531970e+001
2.817681e+002,4.620546e+001
2.836966e+002,4.584551e+001
2.856250e+002,4.316605e+001
2.875535e+002,3.893514e+001
2.894820e+002,3.646756e+001
2.914104e+002,3.752800e+001
2.933389e+002,3.860633e+001
2.952674e+002,3.735556e+001
2.971958e+002,3.267595e+001
2.991243e+002,3.076639e+001
3.010528e+002,3.520992e+001
3.029813e+002,4.331468e+001
3.049097e+002,4.653622e+001
3.068382e+002,4.141051e+001
3.087667e+002,3.531107e+001
3.106951e+002,3.137292e+001
3.126236e+002,2.999553e+001
3.145521e+002,2.965954e+001
3.164805e+002,3.121807e+001
3.184090e+002,3.352208e+001
3.203375e+002,3.416473e+001
3.222659e+002,3.212973e+001
3.241944e+002,2.994507e+001
3.261229e+002,2.872693e+001
3.280513e+002,2.919478e+001
3.299798e+002,2.875606e+001
3.319083e+002,2.495322e+001
3.338367e+002,2.115020e+001
3.357652e+002,2.211413e+001
3.376937e+002,3.177941e+001
3.396221e+002,3.960977e+001
3.415506e+002,4.111509e+001
3.434791e+002,3.420596e+001
3.454075e+002,3.134594e+001
3.473360e+002,3.628327e+001
3.492645e+002,4.312857e+001
3.511929e+002,4.649829e+001
3.531214e+002,4.381591e+001
3.550499e+002,4.252186e+001
3.569783e+002,4.521206e+001
3.589068e+002,5.181193e+001
3.608353e+002,5.666502e+001
3.627637e+002,5.796067e+001
3.646922e+002,5.893393e+001
3.666207e+002,6.193363e+001
3.685491e+002,6.933530e+001
3.704776e+002,7.353099e+001
3.724061e+002,7.053331e+001
3.743345e+002,6.305841e+001
3.762630e+002,6.112951e+001
3.781915e+002,7.078782e+001
3.801199e+002,7.895282e+001
3.820484e+002,7.934424e+001
3.839769e+002,6.757799e+001
3.859053e+002,5.809137e+001
3.878338e+002,5.347810e+001
3.897623e+002,5.096616e+001
3.916907e+002,4.549508e+001
3.936192e+002,3.329612e+001
3.955477e+002,2.478952e+001
3.974761e+002,2.415270e+001
3.994046e+002,3.326388e+001
4.013331e+002,4.006629e+001
4.032615e+002,4.376565e+001
4.051900e+002,4.581572e+001
4.071185e+002,4.751735e+001
4.090469e+002,4.910128e+001
4.109754e+002,4.980826e+001
4.129039e+002,4.919841e+001
4.148323e+002,4.749866e+001
4.167608e+002,4.613383e+001
4.186893e+002,4.461287e+001
4.206177e+002,4.376992e+001
4.225462e+002,4.461795e+001
4.244747e+002,4.768935e+001
4.264032e+002,4.874207e+001
4.283316e+002,4.452678e+001
4.302601e+002,3.858567e+001
4.321886e+002,3.723409e+001
4.341170e+002,4.277442e+001
4.360455e+002,4.850108e+001
4.379740e+002,5.227050e+001
4.399024e+002,5.429609e+001
4.418309e+002,5.602459e+001
4.437594e+002,5.741179e+001
4.456878e+002,5.864862e+001
4.476163e+002,5.994260e+001
4.495448e+002,6.145954e+001
4.514732e+002,6.244157e+001
4.534017e+002,6.251226e+001
4.553302e+002,6.192294e+001
4.572586e+002,6.108222e+001
4.591871e+002,5.860640e+001
4.611156e+002,5.721311e+001
4.630440e+002,5.899369e+001
4.649725e+002,6.381366e+001
4.669010e+002,6.608868e+001
4.688294e+002,6.186758e+001
4.707579e+002,5.666519e+001
4.726864e+002,5.480524e+001
4.746148e+002,5.895139e+001
4.765433e+002,6.359665e+001
4.784718e+002,6.794791e+001
4.804002e+002,7.263247e+001
4.823287e+002,7.941957e+001
4.842572e+002,9.273756e+001
4.861856e+002,1.023284e+002
4.881141e+002,1.032849e+002
4.900426e+002,9.230704e+001
4.919710e+002,8.379370e+001
4.938995e+002,7.813345e+001
4.958280e+002,7.470319e+001
4.977564e+002,7.303287e+001
4.996849e+002,7.372085e+001
5.016134e+002,7.437779e+001
5.035418e+002,7.488665e+001
5.054703e+002,7.502072e+001
5.073988e+002,7.367033e+001
5.093272e+002,6.636204e+001
5.112557e+002,6.191710e+001
5.131842e+002,6.422391e+001
5.151127e+002,7.268769e+001
5.170411e+002,8.391447e+001
5.189696e+002,9.963444e+001
5.208981e+002,1.166130e+002
5.228265e+002,1.332578e+002
5.247550e+002,1.539046e+002
5.266835e+002,1.658427e+002
5.286119e+002,1.643693e+002
5.305404e+002,1.529883e+002
5.324689e+002,1.373459e+002
5.343973e+002,1.107515e+002
5.363258e+002,8.785215e+001
5.382543e+002,7.405644e+001
5.401827e+002,7.034505e+001
5.421112e+002,6.595230e+001
5.440397e+002,5.835373e+001
5.459681e+002,5.217162e+001
5.478966e+002,5.033084e+001
5.498251e+002,5.435309e+001
5.517535e+002,5.776895e+001
5.536820e+002,5.926205e+001
5.556105e+002,5.990734e+001
5.575389e+002,6.154314e+001
5.594674e+002,6.481373e+001
5.613959e+002,6.772145e+001
5.633243e+002,7.066312e+001
5.652528e+002,7.318990e+001
5.671813e+002,7.234424e+001
5.691097e+002,6.479255e+001
5.710382e+002,5.655967e+001
5.729667e+002,4.882228e+001
5.748951e+002,4.139644e+001
5.768236e+002,3.810944e+001
5.787521e+002,4.331681e+001
5.806805e+002,5.039104e+001
5.826090e+002,5.404965e+001
5.845375e+002,5.212445e+001
5.864659e+002,5.068013e+001
5.883944e+002,5.040140e+001
5.903229e+002,5.101525e+001
5.922513e+002,5.209941e+001
5.941798e+002,5.427208e+001
5.961083e+002,5.573056e+001
5.980367e+002,5.577280e+001
5.999652e+002,5.453857e+001
6.018937e+002,5.293167e+001
6.038221e+002,4.990255e+001
6.057506e+002,4.742645e+001
6.076791e+002,4.666970e+001
6.096075e+002,4.763123e+001
6.115360e+002,4.835955e+001
6.134645e+002,4.780851e+001
6.153929e+002,4.752587e+001
6.173214e+002,4.869305e+001
6.192499e+002,5.222696e+001
6.211783e+002,5.559277e+001
6.231068e+002,5.983908e+001
6.250353e+002,6.346975e+001
6.269637e+002,6.385558e+001
6.288922e+002,5.955226e+001
6.308207e+002,5.590845e+001
6.327491e+002,5.518676e+001
6.346776e+002,5.661534e+001
6.366061e+002,5.715839e+001
6.385345e+002,5.418259e+001
6.404630e+002,5.286809e+001
6.423915e+002,5.725398e+001
6.443199e+002,6.622119e+001
6.462484e+002,6.957387e+001
6.481769e+002,6.021380e+001
6.501053e+002,5.129267e+001
6.520338e+002,5.072837e+001
6.539623e+002,6.330366e+001
6.558907e+002,7.056873e+001
6.578192e+002,6.871463e+001
6.597477e+002,6.394415e+001
6.616761e+002,6.208537e+001
6.636046e+002,6.350011e+001
6.655331e+002,6.497909e+001
6.674615e+002,6.692106e+001
6.693900e+002,6.808672e+001
6.713185e+002,6.665116e+001
6.732469e+002,5.812252e+001
6.751754e+002,5.219072e+001
6.771039e+002,5.043164e+001
6.790323e+002,5.221481e+001
6.809608e+002,5.539758e+001
6.828893e+002,6.136956e+001
6.848177e+002,6.634222e+001
6.867462e+002,6.812390e+001
6.886747e+002,6.691316e+001
6.906031e+002,6.766653e+001
6.925316e+002,7.385986e+001
6.944601e+002,7.867250e+001
6.963885e+002,7.804201e+001
6.983170e+002,7.235304e+001
7.002455e+002,6.868253e+001
7.021740e+002,7.070264e+001
7.041024e+002,7.202659e+001
7.060309e+002,6.783096e+001
7.079594e+002,5.434577e+001
7.098878e+002,4.769604e+001
7.118163e+002,5.495852e+001
7.137448e+002,6.445210e+001
7.156732e+002,6.430202e+001
7.176017e+002,5.311175e+001
7.195302e+002,4.478197e+001
7.214586e+002,4.375445e+001
7.233871e+002,4.636464e+001
7.253156e+002,4.916803e+001
7.272440e+002,5.254813e+001
7.291725e+002,5.551991e+001
7.311010e+002,5.719513e+001
7.330294e+002,5.861588e+001
7.349579e+002,6.188688e+001
7.368864e+002,6.804808e+001
7.388149e+002,7.329244e+001
7.407433e+002,7.368761e+001
7.426718e+002,7.234567e+001
7.446003e+002,7.684630e+001
7.465287e+002,9.491380e+001
7.484572e+002,1.099103e+002
7.503857e+002,1.200705e+002
7.523141e+002,1.246764e+002
7.542426e+002,1.219625e+002
7.561711e+002,1.077320e+002
7.580995e+002,9.304311e+001
7.600280e+002,8.107426e+001
7.619565e+002,7.180374e+001
7.638849e+002,6.637846e+001
7.658134e+002,6.953937e+001
7.677419e+002,7.211462e+001
7.696703e+002,7.011526e+001
7.715988e+002,6.359714e+001
7.735273e+002,6.047991e+001
7.754557e+002,6.165019e+001
7.773842e+002,6.528470e+001
7.793127e+002,7.120110e+001
7.812411e+002,7.920901e+001
7.831696e+002,8.676620e+001
7.850981e+002,9.263436e+001
7.870266e+002,9.889101e+001
7.889550e+002,1.078856e+002
7.908835e+002,1.208125e+002
7.928120e+002,1.275795e+002
7.947404e+002,1.241395e+002
7.966689e+002,1.178383e+002
7.985974e+002,1.130870e+002
8.005258e+002,1.099120e+002
8.024543e+002,1.043465e+002
8.043828e+002,9.098513e+001
8.063112e+002,7.868247e+001
8.082397e+002,7.295520e+001
8.101682e+002,7.638986e+001
8.120966e+002,7.843188e+001
8.140251e+002,7.930788e+001
8.159536e+002,7.862218e+001
8.178820e+002,7.463176e+001
8.198105e+002,6.711896e+001
8.217390e+002,6.373804e+001
8.236674e+002,7.179138e+001
8.255959e+002,8.021397e+001
8.275244e+002,8.204082e+001
8.294528e+002,7.375582e+001
8.313813e+002,6.759869e+001
8.333098e+002,6.240251e+001
8.352382e+002,5.997256e+001
8.371667e+002,6.225667e+001
8.390952e+002,6.908768e+001
8.410236e+002,7.767847e+001
8.429521e+002,8.323909e+001
8.448806e+002,9.411069e+001
8.468090e+002,1.176576e+002
8.487375e+002,1.618815e+002
8.506660e+002,1.978234e+002
8.525944e+002,2.270882e+002
8.545229e+002,2.473311e+002
8.564514e+002,2.565234e+002
8.583798e+002,2.553620e+002
8.603083e+002,2.416976e+002
8.622368e+002,2.043701e+002
8.641652e+002,1.633975e+002
8.660937e+002,1.312928e+002
8.680222e+002,1.091015e+002
8.699506e+002,9.168689e+001
8.718791e+002,7.821309e+001
8.738076e+002,6.917762e+001
8.757360e+002,6.670245e+001
8.776645e+002,7.188318e+001
8.795930e+002,7.427525e+001
8.815214e+002,7.140752e+001
8.834499e+002,6.725826e+001
8.853784e+002,6.283252e+001
8.873068e+002,5.797766e+001
8.892353e+002,5.795080e+001
8.911638e+002,6.826887e+001
8.930922e+002,7.930766e+001
8.950207e+002,8.557263e+001
8.969492e+002,8.597417e+001
8.988776e+002,9.139096e+001
9.008061e+002,1.057798e+002
9.027346e+002,1.211487e+002
9.046630e+002,1.359882e+002
9.065915e+002,1.495675e+002
9.085200e+002,1.557332e+002
9.104484e+002,1.494225e+002
9.123769e+002,1.413668e+002
9.143054e+002,1.367172e+002
9.162338e+002,1.351950e+002
9.181623e+002,1.293458e+002
9.200908e+002,1.084563e+002
9.220192e+002,9.515413e+001
9.239477e+002,1.014499e+002
9.258762e+002,1.220954e+002
9.278046e+002,1.380966e+002
9.297331e+002,1.493494e+002
9.316616e+002,1.546096e+002
9.335900e+002,1.516992e+002
9.355185e+002,1.425145e+002
9.374470e+002,1.321019e+002
9.393754e+002,1.192666e+002
9.413039e+002,1.068350e+002
9.432324e+002,9.216889e+001
9.451608e+002,7.886797e+001
9.470893e+002,7.521818e+001
9.490178e+002,8.415456e+001
9.509462e+002,9.286221e+001
9.528747e+002,9.723057e+001
9.548032e+002,1.003568e+002
9.567316e+002,1.069365e+002
9.586601e+002,1.200291e+002
9.605886e+002,1.259357e+002
9.625170e+002,1.184186e+002
9.644455e+002,1.057240e+002
9.663740e+002,9.437414e+001
9.683024e+002,8.416023e+001
9.702309e+002,7.633334e+001
9.721594e+002,7.164462e+001
9.740878e+002,6.877723e+001
9.760163e+002,6.764561e+001
9.779448e+002,6.805005e+001
9.798733e+002,6.709855e+001
9.818018e+002,6.236318e+001
9.837302e+002,5.855919e+001
9.856587e+002,5.762500e+001
9.875872e+002,5.956382e+001
9.895156e+002,6.385104e+001
9.914441e+002,7.630577e+001
9.933726e+002,8.454095e+001
9.953010e+002,8.250905e+001
9.972295e+002,7.279665e+001
9.991580e+002,6.530698e+001
1.001086e+003,5.972152e+001
1.003015e+003,5.683238e+001
1.004943e+003,5.902842e+001
1.006872e+003,6.351593e+001
1.008800e+003,6.585403e+001
1.010729e+003,6.498379e+001
1.012657e+003,6.432279e+001
1.014586e+003,6.391851e+001
1.016514e+003,6.426546e+001
1.018443e+003,6.619804e+001
1.020371e+003,7.104397e+001
1.022300e+003,7.415659e+001
1.024228e+003,7.434040e+001
1.026156e+003,7.362440e+001
1.028085e+003,7.290285e+001
1.030013e+003,7.224933e+001
1.031942e+003,7.320419e+001
1.033870e+003,7.762192e+001
1.035799e+003,8.159657e+001
1.037727e+003,8.368157e+001
1.039656e+003,8.387330e+001
1.041584e+003,8.241410e+001
1.043513e+003,7.402911e+001
1.045441e+003,7.022472e+001
1.047370e+003,7.642300e+001
1.049298e+003,8.857800e+001
1.051227e+003,9.744090e+001
1.053155e+003,1.029695e+002
1.055083e+003,1.060904e+002
1.057012e+003,1.036285e+002
1.058940e+003,1.009152e+002
1.060869e+003,1.039599e+002
1.062797e+003,1.140933e+002
1.064726e+003,1.214731e+002
1.066654e+003,1.212872e+002
1.068583e+003,1.204613e+002
1.070511e+003,1.234940e+002
1.072440e+003,1.310015e+002
1.074368e+003,1.348543e+002
1.076297e+003,1.344357e+002
1.078225e+003,1.316477e+002
1.080154e+003,1.266879e+002
1.082082e+003,1.198660e+002
1.084010e+003,1.119876e+002
1.085939e+003,1.021738e+002
1.087867e+003,9.360040e+001
1.089796e+003,8.832464e+001
1.091724e+003,8.426802e+001
1.093653e+003,7.816884e+001
1.095581e+003,6.741078e+001
1.097510e+003,6.326289e+001
1.099438e+003,7.273643e+001
1.101367e+003,8.375783e+001
1.103295e+003,8.827715e+001
1.105224e+003,8.560436e+001
1.107152e+003,8.440891e+001
1.109081e+003,8.529504e+001
1.111009e+003,8.698840e+001
1.112938e+003,9.002913e+001
1.114866e+003,9.345435e+001
1.116794e+003,9.489246e+001
1.118723e+003,9.357503e+001
1.120651e+003,9.209531e+001
1.122580e+003,9.002409e+001
1.124508e+003,8.884832e+001
1.126437e+003,9.067809e+001
1.128365e+003,9.714738e+001
1.130294e+003,1.014495e+002
1.132222e+003,1.021001e+002
1.134151e+003,1.018881e+002
1.136079e+003,1.033581e+002
1.138008e+003,1.060803e+002
1.139936e+003,1.038275e+002
1.141865e+003,9.164993e+001
1.143793e+003,8.195746e+001
1.145721e+003,8.072151e+001
1.147650e+003,8.375343e+001
1.149578e+003,8.485091e+001
1.151507e+003,8.380913e+001
1.153435e+003,8.132616e+001
1.155364e+003,7.541984e+001
1.157292e+003,6.996126e+001
1.159221e+003,6.720245e+001
1.161149e+003,6.717535e+001
1.163078e+003,6.975594e+001
1.165006e+003,7.960725e+001
1.166935e+003,8.662141e+001
1.168863e+003,8.531889e+001
1.170792e+003,7.898096e+001
1.172720e+003,7.708171e+001
1.174648e+003,8.174329e+001
1.176577e+003,8.464054e+001
1.178505e+003,8.088436e+001
1.180434e+003,7.699938e+001
1.182362e+003,8.035798e+001
1.184291e+003,9.054340e+001
1.186219e+003,9.473090e+001
1.188148e+003,8.572766e+001
1.190076e+003,7.804846e+001
1.192005e+003,7.918512e+001
1.193933e+003,8.631921e+001
1.195862e+003,8.990802e+001
1.197790e+003,8.593368e+001
1.199719e+003,8.482521e+001
1.201647e+003,9.148640e+001
1.203575e+003,9.859888e+001
1.205504e+003,9.835842e+001
1.207432e+003,8.936379e+001
1.209361e+003,8.384841e+001
1.211289e+003,8.439026e+001
1.213218e+003,8.558992e+001
1.215146e+003,8.488274e+001
1.217075e+003,8.342576e+001
1.219003e+003,8.375565e+001
1.220932e+003,8.664092e+001
1.222860e+003,8.876265e+001
1.224789e+003,8.858596e+001
1.226717e+003,8.781419e+001
1.228646e+003,8.678842e+001
1.230574e+003,8.507024e+001
1.232502e+003,8.739347e+001
1.234431e+003,1.024664e+002
1.236359e+003,1.113995e+002
1.238288e+003,1.051589e+002
1.240216e+003,9.028242e+001
1.242145e+003,7.972468e+001
1.244073e+003,7.363730e+001
1.246002e+003,7.156362e+001
1.247930e+003,7.626896e+001
1.249859e+003,8.255347e+001
1.251787e+003,8.779321e+001
1.253716e+003,9.192327e+001
1.255644e+003,9.429910e+001
1.257573e+003,9.441264e+001
1.259501e+003,9.374236e+001
1.261429e+003,9.173779e+001
1.263358e+003,8.978361e+001
1.265286e+003,9.007518e+001
1.267215e+003,9.332296e+001
1.269143e+003,9.405338e+001
1.271072e+003,8.745155e+001
1.273000e+003,8.263918e+001
1.274929e+003,8.354803e+001
1.276857e+003,8.896925e+001
1.278786e+003,9.481796e+001
1.280714e+003,1.048517e+002
1.282643e+003,1.099053e+002
1.284571e+003,1.047416e+002
1.286500e+003,9.864471e+001
1.288428e+003,9.843500e+001
1.290356e+003,1.040002e+002
1.292285e+003,1.122653e+002
1.294213e+003,1.244978e+002
1.296142e+003,1.369339e+002
1.298070e+003,1.497944e+002
1.299999e+003,1.611494e+002
1.301927e+003,1.697057e+002
1.303856e+003,1.755564e+002
1.305784e+003,1.756089e+002
1.307713e+003,1.660295e+002
1.309641e+003,1.549529e+002
1.311570e+003,1.437072e+002
1.313498e+003,1.338474e+002
1.315427e+003,1.302156e+002
1.317355e+003,1.379450e+002
1.319283e+003,1.405977e+002
1.321212e+003,1.324234e+002
1.323140e+003,1.231887e+002
1.325069e+003,1.174993e+002
1.326997e+003,1.155171e+002
1.328926e+003,1.193445e+002
1.330854e+003,1.296785e+002
1.332783e+003,1.439637e+002
1.334711e+003,1.682412e+002
1.336640e+003,1.918332e+002
1.338568e+003,2.037252e+002
1.340497e+003,2.048007e+002
1.342425e+003,2.037307e+002
1.344354e+003,2.021469e+002
1.346282e+003,1.965853e+002
1.348210e+003,1.837797e+002
1.350139e+003,1.671620e+002
1.352068e+003,1.489316e+002
1.353996e+003,1.285874e+002
1.355924e+003,1.150478e+002
1.357853e+003,1.121270e+002
1.359781e+003,1.127996e+002
1.361710e+003,1.171853e+002
1.363638e+003,1.223046e+002
1.365567e+003,1.212824e+002
1.367495e+003,1.099063e+002
1.369424e+003,1.040852e+002
1.371352e+003,1.098699e+002
1.373281e+003,1.155604e+002
1.375209e+003,1.135102e+002
1.377138e+003,1.070835e+002
1.379066e+003,1.074434e+002
1.380995e+003,1.176801e+002
1.382923e+003,1.285764e+002
1.384851e+003,1.388713e+002
1.386780e+003,1.503163e+002
1.388708e+003,1.613930e+002
1.390637e+003,1.742905e+002
1.392565e+003,1.992874e+002
1.394494e+003,2.434191e+002
1.396422e+003,2.772252e+002
1.398351e+003,2.956581e+002
1.400279e+003,2.994796e+002
1.402208e+003,2.841923e+002
1.404136e+003,2.545051e+002
1.406065e+003,2.254061e+002
1.407993e+003,1.959780e+002
1.409922e+003,1.724574e+002
1.411850e+003,1.578856e+002
1.413778e+003,1.489476e+002
1.415707e+003,1.434429e+002
1.417635e+003,1.414979e+002
1.419564e+003,1.442127e+002
1.421492e+003,1.530417e+002
1.423421e+003,1.640332e+002
1.425349e+003,1.833313e+002
1.427278e+003,1.985983e+002
1.429206e+003,1.968717e+002
1.431135e+003,1.783514e+002
1.433063e+003,1.662411e+002
1.434992e+003,1.683018e+002
1.436920e+003,1.661051e+002
1.438849e+003,1.523730e+002
1.440777e+003,1.379507e+002
1.442705e+003,1.345938e+002
1.444634e+003,1.414217e+002
1.446562e+003,1.379325e+002
1.448491e+003,1.138662e+002
1.450419e+003,9.803057e+001
1.452348e+003,1.026593e+002
1.454276e+003,1.115324e+002
1.456205e+003,1.101790e+002
1.458133e+003,1.006828e+002
1.460062e+003,9.598181e+001
1.461990e+003,9.814458e+001
1.463919e+003,1.002595e+002
1.465847e+003,1.002762e+002
1.467776e+003,9.973772e+001
1.469704e+003,9.970702e+001
1.471632e+003,1.000668e+002
1.473561e+003,1.000616e+002
1.475489e+003,9.893197e+001
1.477418e+003,1.002153e+002
1.479346e+003,1.096894e+002
1.481275e+003,1.166423e+002
1.483203e+003,1.114943e+002
1.485132e+003,9.813097e+001
1.487060e+003,9.153681e+001
1.488989e+003,9.329104e+001
1.490917e+003,9.757796e+001
1.492846e+003,1.065580e+002
1.494774e+003,1.143446e+002
1.496703e+003,1.170984e+002
1.498631e+003,1.165866e+002
1.500559e+003,1.181293e+002
1.502488e+003,1.232344e+002
1.504416e+003,1.260884e+002
1.506345e+003,1.267980e+002
1.508273e+003,1.245621e+002
1.510202e+003,1.169974e+002
1.512130e+003,1.069272e+002
1.514059e+003,9.951294e+001
1.515987e+003,9.469366e+001
1.517916e+003,9.288263e+001
1.519844e+003,9.464896e+001
1.521773e+003,9.848812e+001
1.523701e+003,1.066268e+002
1.525630e+003,1.150990e+002
1.527558e+003,1.184893e+002
1.529486e+003,1.162322e+002
1.531415e+003,1.128199e+002
1.533343e+003,1.056435e+002
1.535272e+003,1.008081e+002
1.537200e+003,1.024618e+002
1.539129e+003,1.046636e+002
1.541057e+003,1.000707e+002
1.542986e+003,9.017162e+001
1.544914e+003,8.790382e+001
1.546843e+003,9.725931e+001
1.548771e+003,1.039315e+002
1.550700e+003,1.029022e+002
1.552628e+003,1.004501e+002
1.554557e+003,1.005319e+002
1.556485e+003,1.021386e+002
1.558413e+003,1.020678e+002
1.560342e+003,9.956284e+001
1.562270e+003,1.003728e+002
1.564199e+003,1.098923e+002
1.566127e+003,1.165366e+002
1.568056e+003,1.104708e+002
1.569984e+003,1.006676e+002
1.571913e+003,9.990175e+001
1.573841e+003,1.077840e+002
1.575770e+003,1.134783e+002
1.577698e+003,1.152273e+002
1.579627e+003,1.161726e+002
1.581555e+003,1.172934e+002
1.583484e+003,1.181737e+002
1.585412e+003,1.182643e+002
1.587340e+003,1.178161e+002
1.589269e+003,1.181144e+002
1.591197e+003,1.197008e+002
1.593126e+003,1.199181e+002
1.595054e+003,1.159484e+002
1.596983e+003,1.132682e+002
1.598911e+003,1.154076e+002
1.600840e+003,1.204830e+002
1.602768e+003,1.255911e+002
1.604697e+003,1.308850e+002
1.606625e+003,1.332766e+002
1.608554e+003,1.306542e+002
1.610482e+003,1.283460e+002
1.612411e+003,1.278228e+002
1.614339e+003,1.287552e+002
1.616267e+003,1.327513e+002
1.618196e+003,1.389134e+002
1.620124e+003,1.376204e+002
1.622053e+003,1.239009e+002
1.623981e+003,1.169234e+002
1.625910e+003,1.265993e+002
1.627838e+003,1.369585e+002
1.629767e+003,1.405091e+002
1.631695e+003,1.396234e+002
1.633624e+003,1.376511e+002
1.635552e+003,1.337152e+002
1.637481e+003,1.356064e+002
1.639409e+003,1.481966e+002
1.641338e+003,1.594301e+002
1.643266e+003,1.672571e+002
1.645194e+003,1.719736e+002
1.647123e+003,1.728495e+002
1.649051e+003,1.705459e+002
1.650980e+003,1.691013e+002
1.652908e+003,1.696230e+002
1.654837e+003,1.674706e+002
1.656765e+003,1.588548e+002
1.658694e+003,1.513438e+002
1.660622e+003,1.493160e+002
1.662551e+003,1.487382e+002
1.664479e+003,1.442518e+002
1.666408e+003,1.357272e+002
1.668336e+003,1.279776e+002
1.670265e+003,1.189745e+002
1.672193e+003,1.149835e+002
1.674121e+003,1.243887e+002
1.676050e+003,1.305813e+002
1.677978e+003,1.203390e+002
1.679907e+003,1.019106e+002
1.681835e+003,9.291024e+001
1.683764e+003,9.537038e+001
1.685692e+003,9.713847e+001
1.687621e+003,9.783346e+001
1.689549e+003,9.794944e+001
1.691478e+003,9.696101e+001
1.693406e+003,9.612969e+001
1.695335e+003,9.697766e+001
1.697263e+003,9.874454e+001
1.699192e+003,9.862757e+001
1.701120e+003,9.595846e+001
1.703048e+003,9.385387e+001
1.704977e+003,9.136423e+001
1.706905e+003,9.093443e+001
1.708834e+003,9.576048e+001
1.710762e+003,1.005515e+002
1.712691e+003,9.904202e+001
1.714619e+003,9.310299e+001
1.716548e+003,9.350470e+001
1.718476e+003,1.033960e+002
1.720405e+003,1.092932e+002
1.722333e+003,1.075641e+002
1.724262e+003,1.050965e+002
1.726190e+003,1.034253e+002
1.728119e+003,1.022841e+002
1.730047e+003,1.022340e+002
1.731975e+003,1.027734e+002
1.733904e+003,9.939959e+001
1.735832e+003,8.941788e+001
1.737761e+003,8.493331e+001
1.739689e+003,9.361714e+001
1.741618e+003,9.927117e+001
1.743546e+003,9.279030e+001
1.745475e+003,8.385448e+001
1.747403e+003,8.195412e+001
1.749332e+003,8.628506e+001
1.751260e+003,9.181536e+001
1.753189e+003,1.001488e+002
1.755117e+003,1.024128e+002
1.757046e+003,9.201591e+001
1.758974e+003,8.394114e+001
1.760902e+003,8.535091e+001
1.762831e+003,8.999104e+001
1.764759e+003,9.297289e+001
1.766688e+003,9.441954e+001
1.768616e+003,9.461135e+001
1.770545e+003,9.321219e+001
1.772473e+003,9.241644e+001
1.774402e+003,9.316686e+001
1.776330e+003,9.327425e+001
1.778259e+003,9.019669e+001
1.780187e+003,8.768506e+001
1.782116e+003,8.987177e+001
1.784044e+003,9.480776e+001
1.785973e+003,9.683530e+001
1.787901e+003,9.568253e+001
1.789829e+003,9.481956e+001
1.791758e+003,9.492346e+001
1.793686e+003,9.487241e+001
1.795615e+003,9.420017e+001
1.797543e+003,9.332522e+001
1.799472e+003,9.205212e+001
1.801400e+003,9.097359e+001
1.803329e+003,9.145776e+001
1.805257e+003,9.345028e+001
1.807186e+003,9.507449e+001
1.809114e+003,9.624754e+001
1.811043e+003,9.669950e+001
1.812971e+003,9.450461e+001
1.814900e+003,9.378003e+001
1.816828e+003,9.977242e+001
1.818756e+003,1.068779e+002
1.820685e+003,1.061566e+002
1.822613e+003,9.875814e+001
1.824542e+003,9.334257e+001
1.826470e+003,9.021145e+001
1.828399e+003,8.876977e+001
1.830327e+003,9.110338e+001
1.832256e+003,9.222885e+001
1.834184e+003,8.713901e+001
1.836113e+003,8.279500e+001
1.838041e+003,8.950998e+001
1.839970e+003,1.026233e+002
1.841898e+003,1.039695e+002
1.843827e+003,8.899498e+001
1.845755e+003,7.901678e+001
1.847684e+003,7.442953e+001
1.849612e+003,7.417586e+001
1.851541e+003,8.089086e+001
1.853469e+003,8.884544e+001
1.855397e+003,9.664203e+001
1.857326e+003,1.022490e+002
1.859254e+003,1.009524e+002
1.861183e+003,9.261784e+001
1.863111e+003,8.796663e+001
1.865040e+003,8.856806e+001
1.866968e+003,8.949421e+001
1.868897e+003,9.170126e+001
1.870825e+003,9.251964e+001
1.872754e+003,8.993238e+001
1.874682e+003,8.681570e+001
1.876611e+003,8.377099e+001
1.878539e+003,8.238786e+001
1.880468e+003,8.993204e+001
1.882396e+003,1.074847e+002
1.884324e+003,1.140404e+002
1.886253e+003,1.031867e+002
1.888181e+003,9.592691e+001
1.890110e+003,1.012305e+002
1.892038e+003,1.054061e+002
1.893967e+003,9.843153e+001
1.895895e+003,8.928179e+001
1.897824e+003,8.754920e+001
1.899752e+003,9.121719e+001
1.901681e+003,9.440369e+001
1.903609e+003,9.701830e+001
1.905538e+003,9.807423e+001
1.907466e+003,9.728430e+001
1.909395e+003,9.548538e+001
1.911323e+003,9.144057e+001
1.913251e+003,8.819977e+001
1.915180e+003,8.681001e+001
1.917108e+003,8.753659e+001
1.919037e+003,9.301271e+001
1.920965e+003,1.015663e+002
1.922894e+003,1.018692e+002
1.924822e+003,8.984113e+001
1.926751e+003,8.538466e+001
1.928679e+003,9.719284e+001
1.930608e+003,1.046858e+002
1.932536e+003,9.946361e+001
1.934465e+003,9.433881e+001
1.936393e+003,9.941020e+001
1.938322e+003,1.068321e+002
1.940250e+003,1.041076e+002
1.942178e+003,9.324642e+001
1.944107e+003,8.963414e+001
1.946035e+003,9.560534e+001
1.947964e+003,9.895398e+001
1.949892e+003,9.586227e+001
1.951821e+003,9.672687e+001
1.953749e+003,1.119439e+002
1.955678e+003,1.216341e+002
1.957606e+003,1.095405e+002
1.959535e+003,9.238307e+001
1.961463e+003,8.959703e+001
1.963392e+003,9.696069e+001
1.965320e+003,1.013898e+002
1.967249e+003,1.025308e+002
1.969177e+003,1.039063e+002
1.971105e+003,1.060945e+002
1.973034e+003,1.079358e+002
1.974962e+003,1.104661e+002
1.976891e+003,1.107619e+002
1.978819e+003,1.045330e+002
1.980748e+003,9.815909e+001
1.982676e+003,9.789516e+001
1.984605e+003,1.018934e+002
1.986533e+003,1.063498e+002
1.988462e+003,1.113810e+002
1.990390e+003,1.143049e+002
1.992319e+003,1.158609e+002
1.994247e+003,1.139820e+002
1.996176e+003,1.046876e+002
1.998104e+003,9.768910e+001
2.000032e+003,9.462114e+001
2.001961e+003,9.561877e+001
2.003889e+003,1.044943e+002
2.005818e+003,1.151362e+002
2.007746e+003,1.185467e+002
2.009675e+003,1.154505e+002
2.011603e+003,1.092503e+002
2.013532e+003,9.934386e+001
2.015460e+003,9.575884e+001
2.017389e+003,1.012777e+002
2.019317e+003,1.075035e+002
2.021246e+003,1.144959e+002
2.023174e+003,1.182330e+002
2.025103e+003,1.141887e+002
2.027031e+003,1.085338e+002
2.028959e+003,1.063885e+002
2.030888e+003,1.063568e+002
2.032816e+003,1.058016e+002
2.034745e+003,1.047917e+002
2.036673e+003,1.045266e+002
2.038602e+003,1.047570e+002
2.040530e+003,1.065023e+002
2.042459e+003,1.141816e+002
2.044387e+003,1.166075e+002
2.046316e+003,1.047928e+002
2.048244e+003,9.653794e+001
2.050173e+003,1.046391e+002
2.052101e+003,1.156460e+002
2.054030e+003,1.159184e+002
2.055958e+003,1.098231e+002
2.057886e+003,1.072337e+002
2.059815e+003,1.078612e+002
2.061743e+003,1.091684e+002
2.063672e+003,1.114284e+002
2.065600e+003,1.103938e+002
2.067529e+003,1.027595e+002
2.069457e+003,9.939256e+001
2.071386e+003,1.073774e+002
2.073314e+003,1.149742e+002
2.075243e+003,1.156811e+002
2.077171e+003,1.143131e+002
2.079100e+003,1.148775e+002
2.081028e+003,1.166382e+002
2.082957e+003,1.189009e+002
2.084885e+003,1.214043e+002
2.086813e+003,1.206680e+002
2.088742e+003,1.162695e+002
2.090670e+003,1.092039e+002
2.092599e+003,9.328016e+001
2.094527e+003,8.730486e+001
2.096456e+003,1.022501e+002
2.098384e+003,1.153276e+002
2.100313e+003,1.170281e+002
2.102241e+003,1.158290e+002
2.104170e+003,1.174334e+002
2.106098e+003,1.192442e+002
2.108027e+003,1.178993e+002
2.109955e+003,1.139908e+002
2.111884e+003,1.088537e+002
2.113812e+003,1.025019e+002
2.115740e+003,9.668858e+001
2.117669e+003,8.965826e+001
2.119597e+003,8.913262e+001
2.121526e+003,1.027419e+002
2.123454e+003,1.126271e+002
2.125383e+003,1.147318e+002
2.127311e+003,1.126308e+002
2.129240e+003,1.041507e+002
2.131168e+003,9.587557e+001
2.133097e+003,9.310487e+001
2.135025e+003,9.493350e+001
2.136954e+003,1.023326e+002
2.138882e+003,1.131721e+002
2.140811e+003,1.156637e+002
2.142739e+003,1.096732e+002
2.144667e+003,1.064443e+002
2.146596e+003,1.074734e+002
2.148524e+003,1.088680e+002
2.150453e+003,1.100223e+002
2.152381e+003,1.111366e+002
2.154310e+003,1.134435e+002
2.156238e+003,1.141723e+002
2.158167e+003,1.110539e+002
2.160095e+003,1.066299e+002
2.162024e+003,1.012523e+002
2.163952e+003,9.727480e+001
2.165881e+003,1.003623e+002
2.167809e+003,1.088730e+002
2.169738e+003,1.135266e+002
2.171666e+003,1.142752e+002
2.173594e+003,1.116606e+002
2.175523e+003,1.046637e+002
2.177451e+003,1.006810e+002
2.179380e+003,1.013491e+002
2.181308e+003,1.038540e+002
2.183237e+003,1.096666e+002
2.185165e+003,1.138516e+002
2.187094e+003,1.129911e+002
2.189022e+003,1.113278e+002
2.190951e+003,1.111284e+002
2.192879e+003,1.124771e+002
2.194808e+003,1.167829e+002
2.196736e+003,1.223302e+002
2.198665e+003,1.246578e+002
2.200593e+003,1.237276e+002
2.202521e+003,1.191958e+002
2.204450e+003,1.104686e+002
2.206378e+003,1.061593e+002
2.208307e+003,1.084255e+002
2.210235e+003,1.079264e+002
2.212164e+003,9.934216e+001
2.214092e+003,9.615611e+001
2.216021e+003,1.093594e+002
2.217949e+003,1.202918e+002
2.219878e+003,1.178597e+002
2.221806e+003,1.125543e+002
2.223735e+003,1.116281e+002
2.225663e+003,1.133505e+002
2.227592e+003,1.170779e+002
2.229520e+003,1.211237e+002
2.231448e+003,1.196031e+002
2.233377e+003,1.134333e+002
2.235305e+003,1.123708e+002
2.237234e+003,1.167262e+002
2.239162e+003,1.183390e+002
2.241091e+003,1.152489e+002
2.243019e+003,1.175586e+002
2.244948e+003,1.327900e+002
2.246876e+003,1.402983e+002
2.248805e+003,1.264669e+002
2.250733e+003,1.152476e+002
2.252662e+003,1.190610e+002
2.254590e+003,1.241487e+002
2.256519e+003,1.213222e+002
2.258447e+003,1.162228e+002
2.260375e+003,1.137651e+002
2.262304e+003,1.133014e+002
2.264232e+003,1.153035e+002
2.266161e+003,1.180307e+002
2.268089e+003,1.144581e+002
2.270018e+003,1.056910e+002
2.271946e+003,1.027875e+002
2.273875e+003,1.070427e+002
2.275803e+003,1.093685e+002
2.277732e+003,1.073189e+002
2.279660e+003,1.075538e+002
2.281589e+003,1.145443e+002
2.283517e+003,1.175741e+002
2.285446e+003,1.107634e+002
2.287374e+003,1.057278e+002
2.289302e+003,1.064805e+002
2.291231e+003,1.096336e+002
2.293159e+003,1.158424e+002
2.295088e+003,1.210494e+002
2.297016e+003,1.207796e+002
2.298945e+003,1.181431e+002
2.300873e+003,1.179934e+002
2.302802e+003,1.185965e+002
2.304730e+003,1.143551e+002
2.306659e+003,1.063343e+002
2.308587e+003,1.032727e+002
2.310516e+003,1.057296e+002
2.312444e+003,1.089436e+002
2.314373e+003,1.133501e+002
2.316301e+003,1.159742e+002
2.318229e+003,1.165108e+002
2.320158e+003,1.152516e+002
2.322086e+003,1.100207e+002
2.324015e+003,1.088609e+002
2.325943e+003,1.187754e+002
2.327872e+003,1.267697e+002
2.329800e+003,1.254775e+002
2.331729e+003,1.240148e+002
2.333657e+003,1.316189e+002
2.335586e+003,1.370188e+002
2.337514e+003,1.245337e+002
2.339443e+003,1.091517e+002
2.341371e+003,1.140371e+002
2.343300e+003,1.274968e+002
2.345228e+003,1.253220e+002
2.347156e+003,1.127019e+002
2.349085e+003,1.057524e+002
2.351013e+003,1.044084e+002
2.352942e+003,1.035455e+002
2.354870e+003,1.020953e+002
2.356799e+003,1.090349e+002
2.358727e+003,1.325560e+002
2.360656e+003,1.399831e+002
2.362584e+003,1.233341e+002
2.364513e+003,1.113199e+002
2.366441e+003,1.081527e+002
2.368370e+003,1.103456e+002
2.370298e+003,1.213453e+002
2.372227e+003,1.289790e+002
2.374155e+003,1.271623e+002
2.376083e+003,1.222188e+002
2.378012e+003,1.138350e+002
2.379940e+003,1.077174e+002
2.381869e+003,1.106188e+002
2.383797e+003,1.152210e+002
2.385726e+003,1.124997e+002
2.387654e+003,1.081950e+002
2.389583e+003,1.117446e+002
2.391511e+003,1.191576e+002
2.393440e+003,1.225553e+002
2.395368e+003,1.228921e+002
2.397297e+003,1.235102e+002
2.399225e+003,1.244168e+002
2.401154e+003,1.265229e+002
2.403082e+003,1.306310e+002
2.405010e+003,1.281252e+002
2.406939e+003,1.166291e+002
2.408867e+003,1.110671e+002
2.410796e+003,1.134570e+002
2.412724e+003,1.154238e+002
2.414653e+003,1.149778e+002
2.416581e+003,1.169950e+002
2.418510e+003,1.254245e+002
2.420438e+003,1.308705e+002
2.422367e+003,1.274941e+002
2.424295e+003,1.254799e+002
2.426224e+003,1.311209e+002
2.428152e+003,1.349501e+002
2.430081e+003,1.301659e+002
2.432009e+003,1.255255e+002
2.433938e+003,1.268436e+002
2.435866e+003,1.295286e+002
2.437794e+003,1.313237e+002
2.439723e+003,1.312221e+002
2.441651e+003,1.264912e+002
2.443580e+003,1.202478e+002
2.445508e+003,1.177808e+002
2.447437e+003,1.172226e+002
2.449365e+003,1.137453e+002
2.451294e+003,1.086366e+002
2.453222e+003,1.072899e+002
2.455151e+003,1.087808e+002
2.457079e+003,1.081020e+002
2.459008e+003,1.055739e+002
2.460936e+003,1.063629e+002
2.462865e+003,1.111361e+002
2.464793e+003,1.156109e+002
2.466721e+003,1.208109e+002
2.468650e+003,1.217626e+002
2.470578e+003,1.164968e+002
2.472507e+003,1.150308e+002
2.474435e+003,1.192680e+002
2.476364e+003,1.229845e+002
2.478292e+003,1.248501e+002
2.480221e+003,1.266007e+002
2.482149e+003,1.295331e+002
2.484078e+003,1.310906e+002
2.486006e+003,1.318948e+002
2.487935e+003,1.294893e+002
2.489863e+003,1.183056e+002
2.491792e+003,1.107657e+002
2.493720e+003,1.123389e+002
2.495648e+003,1.171164e+002
2.497577e+003,1.242728e+002
2.499505e+003,1.304603e+002
2.501434e+003,1.350090e+002
2.503362e+003,1.359160e+002
2.505291e+003,1.279133e+002
2.507219e+003,1.192024e+002
2.509148e+003,1.188968e+002
2.511076e+003,1.221222e+002
2.513005e+003,1.237015e+002
2.514933e+003,1.242488e+002
2.516862e+003,1.248716e+002
2.518790e+003,1.249689e+002
2.520719e+003,1.233536e+002
2.522647e+003,1.203547e+002
2.524575e+003,1.164096e+002
2.526504e+003,1.119272e+002
2.528432e+003,1.075303e+002
2.530361e+003,1.040142e+002
2.532289e+003,1.072703e+002
2.534218e+003,1.159845e+002
2.536146e+003,1.215891e+002
2.538075e+003,1.237800e+002
2.540003e+003,1.246358e+002
2.541932e+003,1.240794e+002
2.543860e+003,1.236464e+002
2.545789e+003,1.238944e+002
2.547717e+003,1.199225e+002
2.549646e+003,1.108163e+002
2.551574e+003,1.055406e+002
2.553502e+003,1.046204e+002
2.555431e+003,1.105065e+002
2.557359e+003,1.281900e+002
2.559288e+003,1.390950e+002
2.561216e+003,1.379516e+002
2.563145e+003,1.363962e+002
2.565073e+003,1.340180e+002
2.567002e+003,1.347905e+002
2.568930e+003,1.424581e+002
2.570859e+003,1.433085e+002
2.572787e+003,1.287168e+002
2.574716e+003,1.181827e+002
2.576644e+003,1.219849e+002
2.578573e+003,1.224846e+002
2.580501e+003,1.075152e+002
2.582429e+003,1.010225e+002
2.584358e+003,1.136373e+002
2.586287e+003,1.271870e+002
2.588215e+003,1.371196e+002
2.590144e+003,1.423756e+002
2.592072e+003,1.413471e+002
2.594000e+003,1.372608e+002
2.595929e+003,1.257790e+002
2.597857e+003,1.197433e+002
2.599786e+003,1.332302e+002
2.601714e+003,1.444677e+002
2.603643e+003,1.384872e+002
2.605571e+003,1.307866e+002
2.607500e+003,1.332289e+002
2.609428e+003,1.359197e+002
2.611357e+003,1.292527e+002
2.613285e+003,1.225523e+002
2.615214e+003,1.238577e+002
2.617142e+003,1.281267e+002
2.619071e+003,1.339546e+002
2.620999e+003,1.374231e+002
2.622927e+003,1.300630e+002
2.624856e+003,1.240488e+002
2.626784e+003,1.382615e+002
2.628713e+003,1.539212e+002
2.630641e+003,1.451480e+002
2.632570e+003,1.300054e+002
2.634498e+003,1.317043e+002
2.636427e+003,1.389646e+002
2.638355e+003,1.388154e+002
2.640284e+003,1.349721e+002
2.642212e+003,1.292744e+002
2.644141e+003,1.254143e+002
2.646069e+003,1.308503e+002
2.647998e+003,1.403740e+002
2.649926e+003,1.462990e+002
2.651854e+003,1.497897e+002
2.653783e+003,1.533497e+002
2.655711e+003,1.554045e+002
2.657640e+003,1.519462e+002
2.659568e+003,1.462417e+002
2.661497e+003,1.443005e+002
2.663425e+003,1.446431e+002
2.665354e+003,1.438549e+002
2.667282e+003,1.432565e+002
2.669211e+003,1.479664e+002
2.671139e+003,1.534913e+002
2.673068e+003,1.493904e+002
2.674996e+003,1.404928e+002
2.676925e+003,1.368858e+002
2.678853e+003,1.371083e+002
2.680781e+003,1.398091e+002
2.682710e+003,1.424701e+002
2.684638e+003,1.360726e+002
2.686567e+003,1.264847e+002
2.688495e+003,1.270181e+002
2.690424e+003,1.337989e+002
2.692352e+003,1.387533e+002
2.694281e+003,1.420226e+002
2.696209e+003,1.437589e+002
2.698138e+003,1.441039e+002
2.700066e+003,1.408698e+002
2.701995e+003,1.378219e+002
2.703923e+003,1.455827e+002
2.705852e+003,1.586444e+002
2.707780e+003,1.633722e+002
2.709708e+003,1.629126e+002
2.711637e+003,1.657105e+002
2.713565e+003,1.695792e+002
2.715494e+003,1.668449e+002
2.717422e+003,1.628793e+002
2.719351e+003,1.728780e+002
2.721279e+003,1.871822e+002
2.723208e+003,1.805867e+002
2.725136e+003,1.650072e+002
2.727065e+003,1.693674e+002
2.728993e+003,1.819189e+002
2.730922e+003,1.785579e+002
2.732850e+003,1.668221e+002
2.734779e+003,1.547868e+002
2.736707e+003,1.470243e+002
2.738635e+003,1.579462e+002
2.740564e+003,1.747736e+002
2.742492e+003,1.727350e+002
2.744421e+003,1.628876e+002
2.746349e+003,1.618510e+002
2.748278e+003,1.643944e+002
2.750206e+003,1.638807e+002
2.752135e+003,1.612191e+002
2.754063e+003,1.566923e+002
2.755992e+003,1.517388e+002
2.757920e+003,1.468876e+002
2.759849e+003,1.442561e+002
2.761777e+003,1.476926e+002
2.763706e+003,1.531349e+002
2.765634e+003,1.593362e+002
2.767563e+003,1.615632e+002
2.769491e+003,1.487506e+002
2.771419e+003,1.359190e+002
2.773348e+003,1.388928e+002
2.775276e+003,1.458358e+002
2.777205e+003,1.455544e+002
2.779133e+003,1.457055e+002
2.781062e+003,1.563263e+002
2.782990e+003,1.657061e+002
2.784919e+003,1.587746e+002
2.786847e+003,1.552255e+002
2.788776e+003,1.756712e+002
2.790704e+003,1.921991e+002
2.792633e+003,1.845440e+002
2.794561e+003,1.718614e+002
2.796490e+003,1.589700e+002
2.798418e+003,1.535184e+002
2.800346e+003,1.632174e+002
2.802275e+003,1.727371e+002
2.804203e+003,1.743103e+002
2.806132e+003,1.746083e+002
2.808060e+003,1.767528e+002
2.809989e+003,1.769401e+002
2.811917e+003,1.730121e+002
2.813846e+003,1.690403e+002
2.815774e+003,1.649087e+002
2.817703e+003,1.641665e+002
2.819631e+003,1.710782e+002
2.821560e+003,1.758015e+002
2.823488e+003,1.748026e+002
2.825417e+003,1.768717e+002
2.827345e+003,1.848552e+002
2.829273e+003,1.887799e+002
2.831202e+003,1.836631e+002
2.833130e+003,1.848161e+002
2.835059e+003,1.986964e+002
2.836987e+003,2.061300e+002
2.838916e+003,2.049954e+002
2.840844e+003,2.096129e+002
2.842773e+003,2.220055e+002
2.844701e+003,2.285307e+002
2.846630e+003,2.272109e+002
2.848558e+003,2.261032e+002
2.850487e+003,2.253005e+002
2.852415e+003,2.235396e+002
2.854344e+003,2.211297e+002
2.856272e+003,2.218847e+002
2.858200e+003,2.250607e+002
2.860129e+003,2.221627e+002
2.862057e+003,2.152460e+002
2.863986e+003,2.174600e+002
2.865914e+003,2.256989e+002
2.867843e+003,2.299137e+002
2.869771e+003,2.318302e+002
2.871700e+003,2.372612e+002
2.873628e+003,2.421268e+002
2.875557e+003,2.339965e+002
2.877485e+003,2.238509e+002
2.879414e+003,2.325655e+002
2.881342e+003,2.451950e+002
2.883271e+003,2.465664e+002
2.885199e+003,2.417107e+002
2.887127e+003,2.268323e+002
2.889056e+003,2.191213e+002
2.890984e+003,2.398261e+002
2.892913e+003,2.621761e+002
2.894841e+003,2.689840e+002
2.896770e+003,2.731905e+002
2.898698e+003,2.777025e+002
2.900627e+003,2.879648e+002
2.902555e+003,3.122610e+002
2.904484e+003,3.281945e+002
2.906412e+003,3.178871e+002
2.908341e+003,3.252072e+002
2.910269e+003,3.757310e+002
2.912198e+003,4.184844e+002
2.914126e+003,4.337081e+002
2.916054e+003,4.862494e+002
2.917983e+003,5.783815e+002
2.919911e+003,7.527267e+002
2.921840e+003,1.049826e+003
2.923768e+003,1.299672e+003
2.925697e+003,1.512182e+003
2.927625e+003,1.541412e+003
2.929554e+003,1.396650e+003
2.931482e+003,1.189048e+003
2.933411e+003,9.388981e+002
2.935339e+003,7.492821e+002
2.937268e+003,6.166368e+002
2.939196e+003,5.367752e+002
2.941125e+003,5.001051e+002
2.943053e+003,4.836138e+002
2.944981e+003,4.933391e+002
2.946910e+003,5.453738e+002
2.948838e+003,6.256920e+002
2.950767e+003,7.226788e+002
2.952695e+003,8.314565e+002
2.954624e+003,9.254114e+002
2.956552e+003,1.060013e+003
2.958481e+003,1.328166e+003
2.960409e+003,1.573288e+003
2.962338e+003,1.779492e+003
2.964266e+003,1.816732e+003
2.966195e+003,1.587188e+003
2.968123e+003,1.301951e+003
2.970052e+003,9.607377e+002
2.971980e+003,7.087981e+002
2.973908e+003,5.664008e+002
2.975837e+003,4.971072e+002
2.977765e+003,4.999053e+002
2.979694e+003,5.663675e+002
2.981622e+003,7.247069e+002
2.983551e+003,7.779291e+002
2.985479e+003,7.251300e+002
2.987408e+003,6.565378e+002
2.989336e+003,5.767166e+002
2.991265e+003,4.944312e+002
2.993193e+003,4.168606e+002
2.995122e+003,3.629002e+002
2.997050e+003,3.340081e+002
2.998979e+003,3.430432e+002
3.000907e+003,3.702286e+002
3.002835e+003,3.915407e+002
3.004764e+003,4.164255e+002
3.006692e+003,4.713947e+002
3.008621e+003,5.095288e+002
3.010549e+003,4.982592e+002
3.012478e+003,4.665275e+002
3.014406e+003,4.165863e+002
3.016335e+003,3.702141e+002
3.018263e+003,3.353362e+002
3.020192e+003,3.029854e+002
3.022120e+003,2.684842e+002
3.024049e+003,2.532690e+002
3.025977e+003,2.670377e+002
3.027906e+003,2.781857e+002
3.029834e+003,2.865137e+002
3.031762e+003,2.766378e+002
3.033691e+003,2.517614e+002
3.035619e+003,2.461986e+002
3.037548e+003,2.558721e+002
3.039476e+003,2.613934e+002
3.041405e+003,2.630959e+002
3.043333e+003,2.584006e+002
3.045262e+003,2.535235e+002
3.047190e+003,2.582934e+002
3.049119e+003,2.654079e+002
3.051047e+003,2.679355e+002
3.052976e+003,2.687858e+002
3.054904e+003,2.698344e+002
3.056833e+003,2.696849e+002
3.058761e+003,2.631291e+002
3.060689e+003,2.642480e+002
3.062618e+003,2.851586e+002
3.064546e+003,2.923570e+002
3.066475e+003,2.786056e+002
3.068403e+003,2.754214e+002
3.070332e+003,2.916898e+002
3.072260e+003,2.902826e+002
3.074189e+003,2.711013e+002
3.076117e+003,2.602632e+002
3.078046e+003,2.558764e+002
3.079974e+003,2.492046e+002
3.081903e+003,2.419985e+002
3.083831e+003,2.390839e+002
3.085760e+003,2.379141e+002
3.087688e+003,2.364544e+002
3.089616e+003,2.333369e+002
3.091545e+003,2.235367e+002
3.093473e+003,2.175272e+002
3.095402e+003,2.274694e+002
3.097330e+003,2.312854e+002
3.099259e+003,2.186732e+002
3.101187e+003,2.102438e+002
3.103116e+003,2.161305e+002
3.105044e+003,2.153492e+002
3.106973e+003,2.063780e+002
3.108901e+003,2.046552e+002
3.110830e+003,2.100392e+002
3.112758e+003,1.996846e+002
3.114687e+003,1.793812e+002
3.116615e+003,1.815491e+002
3.118543e+003,1.943621e+002
3.120472e+003,1.939814e+002
3.122400e+003,1.886674e+002
3.124329e+003,1.864246e+002
3.126257e+003,1.861410e+002
3.128186e+003,1.891823e+002
3.130114e+003,1.901668e+002
3.132043e+003,1.858989e+002
3.133971e+003,1.804614e+002
3.135900e+003,1.717228e+002
3.137828e+003,1.721092e+002
3.139757e+003,1.848011e+002
3.141685e+003,1.834345e+002
3.143614e+003,1.641981e+002
3.145542e+003,1.587783e+002
3.147470e+003,1.648625e+002
3.149399e+003,1.690841e+002
3.151327e+003,1.708771e+002
3.153256e+003,1.670940e+002
3.155184e+003,1.627126e+002
3.157113e+003,1.654884e+002
3.159041e+003,1.684499e+002
3.160970e+003,1.681323e+002
3.162898e+003,1.642490e+002
3.164827e+003,1.505269e+002
3.166755e+003,1.459027e+002
3.168684e+003,1.557194e+002
3.170612e+003,1.640667e+002
3.172541e+003,1.693601e+002
3.174469e+003,1.663430e+002
3.176397e+003,1.552964e+002
3.178326e+003,1.527556e+002
3.180254e+003,1.545549e+002
3.182183e+003,1.444368e+002
3.184111e+003,1.339988e+002
3.186040e+003,1.482964e+002
3.187968e+003,1.635191e+002
3.189897e+003,1.571072e+002
3.191825e+003,1.497046e+002
3.193754e+003,1.536413e+002
3.195682e+003,1.562711e+002
3.197611e+003,1.547811e+002
3.199539e+003,1.519812e+002
3.201468e+003,1.478155e+002
3.203396e+003,1.456004e+002
3.205324e+003,1.454284e+002
3.207253e+003,1.525954e+002
3.209181e+003,1.624120e+002
3.211110e+003,1.594159e+002
3.213038e+003,1.513096e+002
3.214967e+003,1.493837e+002
3.216895e+003,1.491647e+002
3.218824e+003,1.465246e+002
3.220752e+003,1.452715e+002
3.222681e+003,1.457930e+002
3.224609e+003,1.520507e+002
3.226538e+003,1.671982e+002
3.228466e+003,1.754676e+002
3.230395e+003,1.746920e+002
3.232323e+003,1.620546e+002
3.234251e+003,1.398566e+002
3.236180e+003,1.271261e+002
3.238108e+003,1.235126e+002
3.240037e+003,1.308648e+002
3.241965e+003,1.411589e+002
3.243894e+003,1.452714e+002
3.245822e+003,1.483981e+002
3.247751e+003,1.564584e+002
3.249679e+003,1.581302e+002
3.251608e+003,1.432431e+002
3.253536e+003,1.343572e+002
3.255465e+003,1.335080e+002
3.257393e+003,1.339785e+002
3.259322e+003,1.350192e+002
3.261250e+003,1.338032e+002
3.263178e+003,1.307103e+002
3.265107e+003,1.233739e+002
3.267035e+003,1.189672e+002
3.268964e+003,1.317245e+002
3.270892e+003,1.429072e+002
3.272821e+003,1.378479e+002
3.274749e+003,1.317636e+002
3.276678e+003,1.296503e+002
3.278606e+003,1.260496e+002
3.280535e+003,1.191005e+002
3.282463e+003,1.172657e+002
3.284392e+003,1.201249e+002
3.286320e+003,1.237186e+002
3.288249e+003,1.259701e+002
3.290177e+003,1.196916e+002
3.292105e+003,1.112656e+002
3.294034e+003,1.076756e+002
3.295962e+003,1.050351e+002
3.297891e+003,9.708981e+001
3.299819e+003,9.813882e+001
3.301748e+003,1.142602e+002
3.303676e+003,1.244558e+002
3.305605e+003,1.241918e+002
3.307533e+003,1.256837e+002
3.309462e+003,1.277354e+002
3.311390e+003,1.195435e+002
3.313319e+003,1.092376e+002
3.315247e+003,1.133115e+002
3.317176e+003,1.197435e+002
3.319104e+003,1.174320e+002
3.321032e+003,1.150946e+002
3.322961e+003,1.190661e+002
3.324889e+003,1.179648e+002
3.326818e+003,1.090024e+002
3.328746e+003,1.051710e+002
3.330675e+003,1.072944e+002
3.332603e+003,1.136619e+002
3.334532e+003,1.198140e+002
3.336460e+003,1.061379e+002
3.338389e+003,9.237399e+001
3.340317e+003,1.036591e+002
3.342246e+003,1.166183e+002
3.344174e+003,1.198479e+002
3.346103e+003,1.181432e+002
3.348031e+003,1.102696e+002
3.349959e+003,1.086095e+002
3.351888e+003,1.144208e+002
3.353816e+003,1.186879e+002
3.355745e+003,1.205984e+002
3.357673e+003,1.149698e+002
3.359602e+003,1.095724e+002
3.361530e+003,1.194504e+002
3.363459e+003,1.269839e+002
3.365387e+003,1.167732e+002
3.367316e+003,1.129441e+002
3.369244e+003,1.248706e+002
3.371173e+003,1.316447e+002
3.373101e+003,1.318587e+002
3.375030e+003,1.268562e+002
3.376958e+003,1.182122e+002
3.378886e+003,1.076446e+002
3.380815e+003,1.000297e+002
3.382743e+003,1.022283e+002
3.384672e+003,1.071600e+002
3.386600e+003,1.123757e+002
3.388529e+003,1.154209e+002
3.390457e+003,1.151435e+002
3.392386e+003,1.166382e+002
3.394314e+003,1.203098e+002
3.396243e+003,1.213965e+002
3.398171e+003,1.210784e+002
3.400100e+003,1.234516e+002
3.402028e+003,1.249039e+002
3.403957e+003,1.172833e+002
3.405885e+003,1.147956e+002
3.407813e+003,1.284262e+002
3.409742e+003,1.353070e+002
3.411670e+003,1.304798e+002
3.413599e+003,1.271226e+002
3.415527e+003,1.251586e+002
3.417456e+003,1.195155e+002
3.419384e+003,1.136295e+002
3.421313e+003,1.154535e+002
3.423241e+003,1.187850e+002
3.425170e+003,1.226877e+002
3.427098e+003,1.185492e+002
3.429027e+003,9.779641e+001
3.430955e+003,9.834190e+001
3.432884e+003,1.250950e+002
3.434812e+003,1.281514e+002
3.436740e+003,1.152477e+002
3.438669e+003,1.179901e+002
3.440597e+003,1.234392e+002
3.442526e+003,1.161939e+002
3.444454e+003,1.085083e+002
3.446383e+003,1.038944e+002
3.448311e+003,1.071103e+002
3.450240e+003,1.229575e+002
3.452168e+003,1.257762e+002
3.454097e+003,1.186008e+002
3.456025e+003,1.271926e+002
3.457954e+003,1.394004e+002
3.459882e+003,1.369496e+002
3.461811e+003,1.289565e+002
3.463739e+003,1.169479e+002
3.465667e+003,1.123490e+002
3.467596e+003,1.256280e+002
3.469524e+003,1.257978e+002
3.471453e+003,1.144007e+002
3.473381e+003,1.082814e+002
3.475310e+003,1.062633e+002
3.477238e+003,1.062345e+002
3.479167e+003,1.076454e+002
3.481095e+003,1.117662e+002
3.483024e+003,1.134265e+002
3.484952e+003,1.090980e+002
3.486881e+003,1.119781e+002
3.488809e+003,1.218488e+002
3.490738e+003,1.177976e+002
3.492666e+003,1.075048e+002
3.494594e+003,1.138918e+002
3.496523e+003,1.200136e+002
3.498451e+003,1.070883e+002
3.500380e+003,1.001783e+002
3.502308e+003,1.074310e+002
3.504237e+003,1.120064e+002
3.506165e+003,1.118201e+002
3.508094e+003,1.163535e+002
3.510022e+003,1.220999e+002
3.511951e+003,1.186368e+002
3.513879e+003,1.146189e+002
3.515808e+003,1.183277e+002
3.517736e+003,1.225589e+002
3.519665e+003,1.264303e+002
3.521593e+003,1.247829e+002
3.523521e+003,1.173559e+002
3.525450e+003,1.104675e+002
3.527378e+003,1.050109e+002
3.529307e+003,1.007346e+002
3.531235e+003,1.014751e+002
3.533164e+003,1.136151e+002
3.535092e+003,1.230003e+002
3.537021e+003,1.258398e+002
3.538949e+003,1.227699e+002
3.540878e+003,1.148333e+002
3.542806e+003,1.061922e+002
3.544735e+003,1.023799e+002
3.546663e+003,1.217916e+002
3.548592e+003,1.348894e+002
3.550520e+003,1.194320e+002
3.552448e+003,1.107828e+002
3.554377e+003,1.198220e+002
3.556305e+003,1.161474e+002
3.558234e+003,1.044608e+002
3.560162e+003,1.103804e+002
3.562091e+003,1.212654e+002
3.564019e+003,1.223123e+002
3.565948e+003,1.188431e+002
3.567876e+003,1.081175e+002
3.569805e+003,1.059867e+002
3.571733e+003,1.133768e+002
3.573662e+003,1.198860e+002
3.575590e+003,1.236031e+002
3.577519e+003,1.169327e+002
3.579447e+003,1.104505e+002
3.581376e+003,1.148301e+002
3.583304e+003,1.175096e+002
3.585233e+003,1.147280e+002
3.587161e+003,1.096177e+002
3.589090e+003,1.046007e+002
3.591018e+003,1.219731e+002
3.592947e+003,1.418868e+002
3.594875e+003,1.297083e+002
3.596803e+003,1.139877e+002
3.598732e+003,1.073549e+002
3.600660e+003,1.089601e+002
3.602589e+003,1.187116e+002
3.604517e+003,1.216953e+002
3.606446e+003,1.157452e+002
3.608374e+003,8.034507e+001
3.610303e+003,5.481116e+001
3.612231e+003,8.342220e+001
3.614160e+003,1.087287e+002
3.616088e+003,1.177083e+002
3.618017e+003,1.196195e+002
3.619945e+003,1.162097e+002
3.621874e+003,1.097188e+002
3.623802e+003,1.055965e+002
3.625730e+003,1.147513e+002
3.627659e+003,1.195567e+002
3.629587e+003,1.091492e+002
3.631516e+003,1.065811e+002
3.633444e+003,1.146963e+002
3.635373e+003,1.157316e+002
3.637301e+003,1.121092e+002
3.639230e+003,1.042087e+002
3.641158e+003,1.020990e+002
3.643087e+003,1.215260e+002
3.645015e+003,1.269796e+002
3.646944e+003,1.124249e+002
3.648872e+003,1.115076e+002
3.650801e+003,1.200082e+002
3.652729e+003,1.234218e+002
3.654657e+003,1.206855e+002
3.656586e+003,1.054789e+002
3.658514e+003,9.340427e+001
3.660443e+003,8.732585e+001
3.662371e+003,9.168651e+001
3.664300e+003,1.033156e+002
3.666228e+003,1.075538e+002
3.668157e+003,1.093267e+002
3.670085e+003,1.133899e+002
3.672014e+003,1.179192e+002
3.673942e+003,1.235667e+002
3.675871e+003,1.192456e+002
3.677799e+003,1.060878e+002
3.679728e+003,9.437077e+001
3.681656e+003,9.036288e+001
3.683584e+003,1.096907e+002
3.685513e+003,1.212291e+002
3.687441e+003,1.124799e+002
3.689370e+003,1.062346e+002
3.691298e+003,1.052755e+002
3.693227e+003,1.142757e+002
3.695155e+003,1.259381e+002
3.697084e+003,1.317795e+002
3.699012e+003,1.336924e+002
3.700941e+003,1.320188e+002
3.702869e+003,1.301547e+002
3.704798e+003,1.279443e+002
3.706726e+003,1.126763e+002
3.708655e+003,9.874830e+001
3.710583e+003,1.111437e+002
3.712511e+003,1.217116e+002
3.714440e+003,1.162625e+002
3.716368e+003,1.190890e+002
3.718297e+003,1.306683e+002
3.720225e+003,1.150567e+002
3.722154e+003,9.315334e+001
3.724082e+003,9.435081e+001
3.726011e+003,1.017044e+002
3.727939e+003,1.107736e+002
3.729868e+003,1.106528e+002
3.731796e+003,1.028056e+002
3.733725e+003,1.194564e+002
3.735653e+003,1.383450e+002
3.737582e+003,1.273546e+002
3.739510e+003,1.137956e+002
3.741438e+003,1.066524e+002
3.743367e+003,1.063987e+002
3.745295e+003,1.114806e+002
3.747224e+003,1.092148e+002
3.749152e+003,1.062184e+002
3.751081e+003,1.130552e+002
3.753009e+003,1.139358e+002
3.754938e+003,1.002333e+002
3.756866e+003,1.078228e+002
3.758795e+003,1.300972e+002
3.760723e+003,1.258111e+002
3.762652e+003,1.138948e+002
3.764580e+003,1.083837e+002
3.766509e+003,1.101595e+002
3.768437e+003,1.205337e+002
3.770365e+003,1.254662e+002
3.772294e+003,1.235875e+002
3.774222e+003,1.077214e+002
3.776151e+003,9.313193e+001
3.778079e+003,8.689664e+001
3.780008e+003,9.773969e+001
3.781936e+003,1.269189e+002
3.783865e+003,1.255380e+002
3.785793e+003,1.097316e+002
3.787722e+003,1.147122e+002
3.789650e+003,1.193925e+002
3.791579e+003,1.096206e+002
3.793507e+003,1.105906e+002
3.795436e+003,1.225824e+002
3.797364e+003,1.197907e+002
3.799292e+003,1.123031e+002
3.801221e+003,1.140207e+002
3.803149e+003,1.156132e+002
3.805078e+003,1.134598e+002
3.807006e+003,1.139610e+002
3.808935e+003,1.157119e+002
3.810863e+003,1.099496e+002
3.812792e+003,1.039625e+002
3.814720e+003,1.052799e+002
3.816649e+003,1.048575e+002
3.818577e+003,9.966567e+001
3.820506e+003,1.046915e+002
3.822434e+003,1.137205e+002
3.824363e+003,1.111496e+002
3.826291e+003,1.122788e+002
3.828219e+003,1.287637e+002
3.830148e+003,1.292955e+002
3.832076e+003,1.122758e+002
3.834005e+003,1.007095e+002
3.835933e+003,9.767223e+001
3.837862e+003,1.129858e+002
3.839790e+003,1.228656e+002
3.841719e+003,1.217546e+002
3.843647e+003,1.111612e+002
3.845576e+003,9.738806e+001
3.847504e+003,9.807087e+001
3.849433e+003,1.044050e+002
3.851361e+003,1.157999e+002
3.853290e+003,1.178180e+002
3.855218e+003,1.104735e+002
3.857146e+003,1.089213e+002
3.859075e+003,1.107699e+002
3.861003e+003,1.135091e+002
3.862932e+003,1.154126e+002
3.864860e+003,1.162292e+002
3.866789e+003,1.136339e+002
3.868717e+003,1.089168e+002
3.870646e+003,1.059164e+002
3.872574e+003,1.033910e+002
3.874503e+003,9.931482e+001
3.876431e+003,1.006865e+002
3.878360e+003,1.075265e+002
3.880288e+003,1.077079e+002
3.882217e+003,1.062280e+002
3.884145e+003,1.090945e+002
3.886073e+003,1.141541e+002
3.888002e+003,1.226819e+002
3.889930e+003,1.152728e+002
3.891859e+003,9.971556e+001
3.893787e+003,9.446976e+001
3.895716e+003,9.595732e+001
3.897644e+003,1.034966e+002
3.899573e+003,1.125606e+002
3.901501e+003,1.209220e+002
3.903430e+003,1.079752e+002
3.905358e+003,9.732113e+001
3.907287e+003,1.197566e+002
3.909215e+003,1.318733e+002
3.911144e+003,1.267056e+002
3.913072e+003,1.302690e+002
3.915000e+003,1.335699e+002
3.916929e+003,1.134966e+002
3.918857e+003,9.818320e+001
3.920786e+003,1.007800e+002
3.922714e+003,1.040413e+002
3.924643e+003,1.061996e+002
3.926571e+003,1.009406e+002
3.928500e+003,9.895942e+001
3.930428e+003,1.090421e+002
3.932357e+003,1.142865e+002
3.934285e+003,1.134000e+002
3.936214e+003,1.066945e+002
3.938142e+003,1.015901e+002
3.940071e+003,1.072876e+002
3.941999e+003,1.139780e+002
3.943927e+003,1.203536e+002
3.945856e+003,1.081325e+002
3.947784e+003,9.072633e+001
3.949713e+003,8.689014e+001
3.951641e+003,8.849479e+001
3.953570e+003,9.287065e+001
3.955498e+003,1.038751e+002
3.957427e+003,1.157009e+002
3.959355e+003,1.084214e+002
3.961284e+003,1.040743e+002
3.963212e+003,1.179585e+002
3.965141e+003,1.226554e+002
3.967069e+003,1.182430e+002
3.968998e+003,1.082755e+002
3.970926e+003,1.028688e+002
3.972854e+003,1.120816e+002
3.974783e+003,1.162920e+002
3.976711e+003,1.143548e+002
3.978640e+003,1.128752e+002
3.980568e+003,1.109685e+002
3.982497e+003,1.058229e+002
3.984425e+003,1.069333e+002
3.986354e+003,1.163996e+002
3.988282e+003,1.155877e+002
3.990211e+003,1.114452e+002
3.992139e+003,1.159805e+002
3.994068e+003,1.101912e+002
3.995996e+003,8.998064e+001
3.997925e+003,9.564436e+001
3.999853e+003,1.121749e+002
4.001781e+003,1.148513e+002
4.003710e+003,1.127546e+002
4.005638e+003,1.083744e+002
4.007567e+003,1.058642e+002
4.009495e+003,1.040752e+002
4.011424e+003,9.564921e+001
4.013352e+003,9.559734e+001
4.015281e+003,1.195760e+002
4.017209e+003,1.226822e+002
4.019138e+003,1.119024e+002
4.021066e+003,1.036921e+002
4.022995e+003,9.969003e+001
4.024923e+003,1.004209e+002
4.026852e+003,1.079268e+002
4.028780e+003,1.167138e+002
4.030708e+003,1.030021e+002
4.032637e+003,9.156220e+001
4.034565e+003,9.646484e+001
4.036494e+003,1.040554e+002
4.038422e+003,1.119128e+002
4.040351e+003,1.190821e+002
4.042279e+003,1.180969e+002
4.044208e+003,9.390405e+001
4.046136e+003,9.273586e+001
4.048065e+003,1.090405e+002
4.049993e+003,1.112887e+002
4.051922e+003,1.050462e+002
4.053850e+003,9.023121e+001
4.055779e+003,9.133022e+001
4.057707e+003,1.043492e+002
4.059635e+003,9.657454e+001
4.061564e+003,8.616837e+001
4.063492e+003,8.364821e+001
4.065421e+003,8.873505e+001
4.067349e+003,9.936124e+001
4.069278e+003,1.064210e+002
4.071206e+003,1.107470e+002
4.073135e+003,1.119445e+002
4.075063e+003,1.136756e+002
4.076992e+003,1.144287e+002
4.078920e+003,1.033235e+002
4.080849e+003,9.436602e+001
4.082777e+003,9.743853e+001
4.084706e+003,1.031524e+002
4.086634e+003,1.080672e+002
4.088563e+003,9.844094e+001
4.090491e+003,9.306301e+001
4.092419e+003,1.047365e+002
4.094348e+003,1.066706e+002
4.096276e+003,1.005548e+002
4.098205e+003,1.054826e+002
4.100133e+003,1.054723e+002
4.102062e+003,8.725994e+001
4.103990e+003,8.446581e+001
4.105919e+003,9.433099e+001
4.107847e+003,1.067525e+002
4.109776e+003,1.110631e+002
4.111704e+003,9.426693e+001
4.113633e+003,9.123437e+001
4.115561e+003,9.711671e+001
4.117490e+003,9.838007e+001
4.119418e+003,1.009719e+002
4.121347e+003,1.074111e+002
4.123275e+003,1.162015e+002
4.125204e+003,1.206859e+002
4.127132e+003,9.932192e+001
4.129061e+003,9.359434e+001
4.130989e+003,1.150459e+002
4.132917e+003,1.172395e+002
4.134846e+003,1.089443e+002
4.136774e+003,1.030858e+002
4.138703e+003,1.046611e+002
4.140631e+003,1.152430e+002
4.142560e+003,1.086717e+002
4.144488e+003,9.746680e+001
4.146417e+003,9.497791e+001
4.148345e+003,9.825389e+001
4.150273e+003,1.064745e+002
4.152202e+003,1.134734e+002
4.154130e+003,1.133057e+002
4.156059e+003,9.134837e+001
4.157987e+003,8.754121e+001
4.159916e+003,1.006707e+002
4.161844e+003,9.785774e+001
4.163773e+003,9.307726e+001
4.165701e+003,9.761068e+001
4.167630e+003,9.413400e+001
4.169558e+003,8.711646e+001
4.171487e+003,9.317904e+001
4.173415e+003,1.004185e+002
4.175344e+003,1.039979e+002
4.177272e+003,1.038996e+002
4.179201e+003,1.027812e+002
4.181129e+003,1.082159e+002
4.183058e+003,1.064386e+002
4.184986e+003,9.478997e+001
4.186915e+003,9.663966e+001
4.188843e+003,1.062819e+002
4.190771e+003,1.212178e+002
4.192700e+003,1.213345e+002
4.194628e+003,1.057792e+002
4.196557e+003,1.024573e+002
4.198485e+003,1.049486e+002
4.200414e+003,1.119515e+002
4.202342e+003,1.019005e+002
4.204271e+003,8.177395e+001
4.206199e+003,9.361700e+001
4.208127e+003,1.067090e+002
4.210056e+003,1.057006e+002
4.211984e+003,1.074161e+002
4.213913e+003,1.115384e+002
4.215841e+003,1.205401e+002
4.217770e+003,1.191818e+002
4.219698e+003,1.013874e+002
4.221627e+003,9.216452e+001
4.223555e+003,9.157863e+001
4.225484e+003,1.052373e+002
4.227412e+003,1.148143e+002
4.229341e+003,1.171974e+002
4.231269e+003,1.032980e+002
4.233198e+003,9.352244e+001
4.235126e+003,1.077858e+002
4.237055e+003,1.107879e+002
4.238983e+003,1.052638e+002
4.240912e+003,9.667360e+001
4.242840e+003,9.787838e+001
4.244769e+003,1.155509e+002
4.246697e+003,1.089603e+002
4.248625e+003,9.654059e+001
4.250554e+003,9.791477e+001
