1.159199e+002,4.605524e+002
1.178484e+002,5.116369e+002
1.197769e+002,5.552806e+002
1.217053e+002,5.909233e+002
1.236338e+002,6.163057e+002
1.255623e+002,6.275600e+002
1.274907e+002,6.311572e+002
1.294192e+002,6.338636e+002
1.313477e+002,6.364882e+002
1.332761e+002,6.362990e+002
1.352046e+002,6.354185e+002
1.371331e+002,6.351627e+002
1.390615e+002,6.198350e+002
1.409900e+002,5.756458e+002
1.429185e+002,5.146555e+002
1.448469e+002,4.576839e+002
1.467754e+002,4.048259e+002
1.487039e+002,3.563051e+002
1.506323e+002,3.130829e+002
1.525608e+002,2.747629e+002
1.544893e+002,2.424048e+002
1.564177e+002,2.168423e+002
1.583462e+002,1.974090e+002
1.602747e+002,1.811075e+002
1.622031e+002,1.692040e+002
1.641316e+002,1.590429e+002
1.660601e+002,1.487458e+002
1.679885e+002,1.369720e+002
1.699170e+002,1.278517e+002
1.718455e+002,1.226033e+002
1.737739e+002,1.212020e+002
1.757024e+002,1.189449e+002
1.776309e+002,1.162640e+002
1.795593e+002,1.123753e+002
1.814878e+002,1.067375e+002
1.834163e+002,9.459393e+001
1.853447e+002,8.553944e+001
1.872732e+002,8.157018e+001
1.892017e+002,8.222443e+001
1.911301e+002,8.553305e+001
1.930586e+002,9.362962e+001
1.949871e+002,1.035516e+002
1.969155e+002,1.115603e+002
1.988440e+002,1.192654e+002
2.007725e+002,1.241555e+002
2.027009e+002,1.252869e+002
2.046294e+002,1.230259e+002
2.065579e+002,1.176080e+002
2.084864e+002,1.078652e+002
2.104148e+002,9.518821e+001
2.123433e+002,8.245933e+001
2.142718e+002,6.725626e+001
2.162002e+002,5.469830e+001
2.181287e+002,4.708790e+001
2.200572e+002,4.667414e+001
2.219856e+002,4.566727e+001
2.239141e+002,4.303157e+001
2.258426e+002,3.933483e+001
2.277710e+002,3.606064e+001
2.296995e+002,3.327216e+001
2.316280e+002,3.093625e+001
2.335564e+002,2.902151e+001
2.354849e+002,2.813244e+001
2.374134e+002,2.686499e+001
2.393418e+002,2.428778e+001
2.412703e+002,2.132850e+001
2.431988e+002,1.995614e+001
2.451272e+002,2.192157e+001
2.470557e+002,2.436821e+001
2.489842e+002,2.609891e+001
2.509126e+002,2.726749e+001
2.528411e+002,2.732245e+001
2.547696e+002,2.559242e+001
2.566980e+002,2.259705e+001
2.586265e+002,1.949274e+001
2.605550e+002,1.524631e+001
2.624834e+002,1.170377e+001
2.644119e+002,1.012452e+001
2.663404e+002,1.071746e+001
2.682688e+002,1.189693e+001
2.701973e+002,1.349736e+001
2.721258e+002,1.544442e+001
2.740542e+002,1.756510e+001
2.759827e+002,2.087190e+001
2.779112e+002,2.358192e+001
2.798396e+002,2.437881e+001
2.817681e+002,2.307123e+001
2.836966e+002,2.162149e+001
2.856250e+002,2.035190e+001
2.875535e+002,1.928074e+001
2.894820e+002,1.856498e+001
2.914104e+002,1.693986e+001
2.933389e+002,1.665265e+001
2.952674e+002,1.922413e+001
2.971958e+002,2.533969e+001
2.991243e+002,3.085147e+001
3.010528e+002,3.582996e+001
3.029813e+002,3.979187e+001
3.049097e+002,4.129039e+001
3.068382e+002,3.889872e+001
3.087667e+002,3.564703e+001
3.106951e+002,3.268929e+001
3.126236e+002,2.984644e+001
3.145521e+002,2.795571e+001
3.164805e+002,2.770040e+001
3.184090e+002,2.834068e+001
3.203375e+002,2.839513e+001
3.222659e+002,2.816656e+001
3.241944e+002,2.692308e+001
3.261229e+002,2.396395e+001
3.280513e+002,1.744034e+001
3.299798e+002,1.424390e+001
3.319083e+002,1.645540e+001
3.338367e+002,2.128397e+001
3.357652e+002,2.469977e+001
3.376937e+002,2.552436e+001
3.396221e+002,2.685842e+001
3.415506e+002,3.010358e+001
3.434791e+002,3.591752e+001
3.454075e+002,4.015846e+001
3.473360e+002,4.222189e+001
3.492645e+002,4.304158e+001
3.511929e+002,4.347427e+001
3.531214e+002,4.312963e+001
3.550499e+002,4.316305e+001
3.569783e+002,4.448219e+001
3.589068e+002,4.696522e+001
3.608353e+002,4.760047e+001
3.627637e+002,4.580185e+001
3.646922e+002,4.257167e+001
3.666207e+002,3.852028e+001
3.685491e+002,3.298820e+001
3.704776e+002,2.804377e+001
3.724061e+002,2.349626e+001
3.743345e+002,1.974069e+001
3.762630e+002,1.783221e+001
3.781915e+002,1.908859e+001
3.801199e+002,2.069923e+001
3.820484e+002,2.144585e+001
3.839769e+002,2.113861e+001
3.859053e+002,2.021699e+001
3.878338e+002,1.793662e+001
3.897623e+002,1.526774e+001
3.916907e+002,1.377072e+001
3.936192e+002,1.402203e+001
3.955477e+002,1.444874e+001
3.974761e+002,1.436178e+001
3.994046e+002,1.355912e+001
4.013331e+002,1.349936e+001
4.032615e+002,1.464843e+001
4.051900e+002,1.620153e+001
4.071185e+002,1.753933e+001
4.090469e+002,1.868797e+001
4.109754e+002,1.960251e+001
4.129039e+002,1.987787e+001
4.148323e+002,1.974881e+001
4.167608e+002,2.072686e+001
4.186893e+002,2.500985e+001
4.206177e+002,2.839743e+001
4.225462e+002,2.850916e+001
4.244747e+002,2.487041e+001
4.264032e+002,2.165142e+001
4.283316e+002,1.885721e+001
4.302601e+002,1.696893e+001
4.321886e+002,1.716458e+001
4.341170e+002,2.058637e+001
4.360455e+002,2.395356e+001
4.379740e+002,2.645288e+001
4.399024e+002,2.816257e+001
4.418309e+002,2.877201e+001
4.437594e+002,2.488355e+001
4.456878e+002,2.208521e+001
4.476163e+002,2.513692e+001
4.495448e+002,3.501171e+001
4.514732e+002,4.582860e+001
4.534017e+002,5.871698e+001
4.553302e+002,7.173390e+001
4.572586e+002,7.987772e+001
4.591871e+002,8.183142e+001
4.611156e+002,8.009965e+001
4.630440e+002,7.347624e+001
4.649725e+002,6.211099e+001
4.669010e+002,5.215854e+001
4.688294e+002,4.467654e+001
4.707579e+002,3.879884e+001
4.726864e+002,3.383883e+001
4.746148e+002,2.918873e+001
4.765433e+002,2.639742e+001
4.784718e+002,2.677543e+001
4.804002e+002,2.923684e+001
4.823287e+002,3.082736e+001
4.842572e+002,3.134044e+001
4.861856e+002,3.102897e+001
4.881141e+002,3.002724e+001
4.900426e+002,2.822749e+001
4.919710e+002,2.601150e+001
4.938995e+002,2.085951e+001
4.958280e+002,1.682744e+001
4.977564e+002,1.822433e+001
4.996849e+002,2.765217e+001
5.016134e+002,3.470422e+001
5.035418e+002,3.560307e+001
5.054703e+002,3.191110e+001
5.073988e+002,3.008191e+001
5.093272e+002,3.040928e+001
5.112557e+002,3.196338e+001
5.131842e+002,3.555088e+001
5.151127e+002,4.103959e+001
5.170411e+002,4.414323e+001
5.189696e+002,4.252618e+001
5.208981e+002,3.926924e+001
5.228265e+002,3.668196e+001
5.247550e+002,3.517196e+001
5.266835e+002,3.352053e+001
5.286119e+002,3.163815e+001
5.305404e+002,2.948360e+001
5.324689e+002,2.684884e+001
5.343973e+002,2.176322e+001
5.363258e+002,1.858590e+001
5.382543e+002,1.966137e+001
5.401827e+002,2.546172e+001
5.421112e+002,2.899480e+001
5.440397e+002,2.872233e+001
5.459681e+002,2.724335e+001
5.478966e+002,2.617922e+001
5.498251e+002,2.574828e+001
5.517535e+002,2.502849e+001
5.536820e+002,2.352900e+001
5.556105e+002,2.183424e+001
5.575389e+002,2.102954e+001
5.594674e+002,2.180976e+001
5.613959e+002,2.200365e+001
5.633243e+002,1.985098e+001
5.652528e+002,1.617746e+001
5.671813e+002,1.487528e+001
5.691097e+002,1.892067e+001
5.710382e+002,2.289467e+001
5.729667e+002,2.440392e+001
5.748951e+002,2.318328e+001
5.768236e+002,2.232926e+001
5.787521e+002,2.204804e+001
5.806805e+002,2.232383e+001
5.826090e+002,2.296442e+001
5.845375e+002,2.335213e+001
5.864659e+002,2.550592e+001
5.883944e+002,3.035997e+001
5.903229e+002,3.691528e+001
5.922513e+002,4.356517e+001
5.941798e+002,5.161302e+001
5.961083e+002,5.727892e+001
5.980367e+002,5.824429e+001
5.999652e+002,5.506216e+001
6.018937e+002,5.321366e+001
6.038221e+002,5.168215e+001
6.057506e+002,5.226639e+001
6.076791e+002,5.756490e+001
6.096075e+002,6.761311e+001
6.115360e+002,7.438050e+001
6.134645e+002,7.700154e+001
6.153929e+002,7.545123e+001
6.173214e+002,6.944626e+001
6.192499e+002,5.582127e+001
6.211783e+002,4.362138e+001
6.231068e+002,3.232621e+001
6.250353e+002,2.316072e+001
6.269637e+002,1.824382e+001
6.288922e+002,1.887909e+001
6.308207e+002,2.004157e+001
6.327491e+002,2.036170e+001
6.346776e+002,1.995758e+001
6.366061e+002,1.916985e+001
6.385345e+002,1.655050e+001
6.404630e+002,1.496564e+001
6.423915e+002,1.585432e+001
6.443199e+002,1.897095e+001
6.462484e+002,2.188320e+001
6.481769e+002,2.557389e+001
6.501053e+002,2.769863e+001
6.520338e+002,2.625457e+001
6.539623e+002,1.833336e+001
6.558907e+002,1.547859e+001
6.578192e+002,2.299487e+001
6.597477e+002,3.223879e+001
6.616761e+002,3.362937e+001
6.636046e+002,2.527920e+001
6.655331e+002,2.024281e+001
6.674615e+002,2.568227e+001
6.693900e+002,3.512665e+001
6.713185e+002,4.032933e+001
6.732469e+002,3.637006e+001
6.751754e+002,3.362851e+001
6.771039e+002,3.361867e+001
6.790323e+002,3.566066e+001
6.809608e+002,3.804323e+001
6.828893e+002,4.273833e+001
6.848177e+002,4.425889e+001
6.867462e+002,3.803140e+001
6.886747e+002,2.463545e+001
6.906031e+002,1.805775e+001
6.925316e+002,2.530381e+001
6.944601e+002,3.244443e+001
6.963885e+002,3.241026e+001
6.983170e+002,2.573978e+001
7.002455e+002,2.231159e+001
7.021740e+002,2.639881e+001
7.041024e+002,3.088100e+001
7.060309e+002,3.109217e+001
7.079594e+002,2.472414e+001
7.098878e+002,2.150040e+001
7.118163e+002,2.467122e+001
7.137448e+002,2.895547e+001
7.156732e+002,2.902613e+001
7.176017e+002,2.427070e+001
7.195302e+002,2.075973e+001
7.214586e+002,1.921373e+001
7.233871e+002,1.990468e+001
7.253156e+002,2.342417e+001
7.272440e+002,3.190660e+001
7.291725e+002,3.975446e+001
7.311010e+002,4.625445e+001
7.330294e+002,5.184033e+001
7.349579e+002,5.764785e+001
7.368864e+002,6.500671e+001
7.388149e+002,6.949106e+001
7.407433e+002,6.897482e+001
7.426718e+002,6.461288e+001
7.446003e+002,5.830533e+001
7.465287e+002,4.615067e+001
7.484572e+002,3.675748e+001
7.503857e+002,3.347903e+001
7.523141e+002,3.477811e+001
7.542426e+002,3.348546e+001
7.561711e+002,2.676818e+001
7.580995e+002,2.191073e+001
7.600280e+002,2.402736e+001
7.619565e+002,3.135487e+001
7.638849e+002,3.426270e+001
7.658134e+002,2.498518e+001
7.677419e+002,1.817476e+001
7.696703e+002,1.965636e+001
7.715988e+002,2.957601e+001
7.735273e+002,3.792462e+001
7.754557e+002,4.656772e+001
7.773842e+002,5.152473e+001
7.793127e+002,4.881592e+001
7.812411e+002,3.913844e+001
7.831696e+002,3.294943e+001
7.850981e+002,3.505923e+001
7.870266e+002,3.765087e+001
7.889550e+002,3.635545e+001
7.908835e+002,2.993040e+001
7.928120e+002,2.823806e+001
7.947404e+002,3.426068e+001
7.966689e+002,4.263795e+001
7.985974e+002,4.998481e+001
8.005258e+002,5.624213e+001
8.024543e+002,6.499364e+001
8.043828e+002,7.937509e+001
8.063112e+002,9.441266e+001
8.082397e+002,1.078644e+002
8.101682e+002,1.199550e+002
8.120966e+002,1.285731e+002
8.140251e+002,1.314320e+002
8.159536e+002,1.325328e+002
8.178820e+002,1.352194e+002
8.198105e+002,1.397126e+002
8.217390e+002,1.415745e+002
8.236674e+002,1.412339e+002
8.255959e+002,1.370066e+002
8.275244e+002,1.268845e+002
8.294528e+002,1.075977e+002
8.313813e+002,9.041676e+001
8.333098e+002,7.343816e+001
8.352382e+002,5.961950e+001
8.371667e+002,5.190384e+001
8.390952e+002,5.009468e+001
8.410236e+002,5.057833e+001
8.429521e+002,5.579796e+001
8.448806e+002,6.067703e+001
8.468090e+002,6.166954e+001
8.487375e+002,5.715445e+001
8.506660e+002,5.273648e+001
8.525944e+002,4.811732e+001
8.545229e+002,4.387993e+001
8.564514e+002,4.067789e+001
8.583798e+002,3.854717e+001
8.603083e+002,3.633048e+001
8.622368e+002,3.358967e+001
8.641652e+002,3.096000e+001
8.660937e+002,2.894358e+001
8.680222e+002,2.774543e+001
8.699506e+002,2.621053e+001
8.718791e+002,2.280541e+001
8.738076e+002,2.021486e+001
8.757360e+002,2.104609e+001
8.776645e+002,2.596562e+001
8.795930e+002,2.838030e+001
8.815214e+002,2.567643e+001
8.834499e+002,2.237754e+001
8.853784e+002,2.108209e+001
8.873068e+002,2.178977e+001
8.892353e+002,2.292339e+001
8.911638e+002,2.471319e+001
8.930922e+002,2.651441e+001
8.950207e+002,2.755791e+001
8.969492e+002,2.756825e+001
8.988776e+002,2.971228e+001
9.008061e+002,3.677358e+001
9.027346e+002,4.325068e+001
9.046630e+002,4.643487e+001
9.065915e+002,4.684797e+001
9.085200e+002,4.592031e+001
9.104484e+002,4.303489e+001
9.123769e+002,3.986576e+001
9.143054e+002,3.751232e+001
9.162338e+002,3.587835e+001
9.181623e+002,3.242437e+001
9.200908e+002,2.252830e+001
9.220192e+002,1.593234e+001
9.239477e+002,1.826917e+001
9.258762e+002,2.686086e+001
9.278046e+002,3.173134e+001
9.297331e+002,3.032580e+001
9.316616e+002,2.930970e+001
9.335900e+002,3.174198e+001
9.355185e+002,3.646275e+001
9.374470e+002,4.029665e+001
9.393754e+002,4.371549e+001
9.413039e+002,4.545380e+001
9.432324e+002,4.408595e+001
9.451608e+002,4.118952e+001
9.470893e+002,4.020308e+001
9.490178e+002,4.224103e+001
9.509462e+002,4.293807e+001
9.528747e+002,3.957559e+001
9.548032e+002,3.515248e+001
9.567316e+002,3.344001e+001
9.586601e+002,3.581055e+001
9.605886e+002,3.618930e+001
9.625170e+002,3.072482e+001
9.644455e+002,2.474446e+001
9.663740e+002,2.282991e+001
9.683024e+002,2.608242e+001
9.702309e+002,3.131061e+001
9.721594e+002,3.713117e+001
9.740878e+002,4.603518e+001
9.760163e+002,5.963461e+001
9.779448e+002,7.764861e+001
9.798733e+002,1.000856e+002
9.818018e+002,1.244313e+002
9.837302e+002,1.567368e+002
9.856587e+002,2.008322e+002
9.875872e+002,2.566880e+002
9.895156e+002,3.143476e+002
9.914441e+002,3.966053e+002
9.933726e+002,4.552711e+002
9.953010e+002,4.773621e+002
9.972295e+002,4.628337e+002
9.991580e+002,4.145583e+002
1.001086e+003,3.133669e+002
1.003015e+003,2.193433e+002
1.004943e+003,1.498493e+002
1.006872e+003,1.012534e+002
1.008800e+003,7.105785e+001
1.010729e+003,6.420988e+001
1.012657e+003,6.459009e+001
1.014586e+003,7.225997e+001
1.016514e+003,8.323862e+001
1.018443e+003,9.326452e+001
1.020371e+003,1.015539e+002
1.022300e+003,1.108167e+002
1.024228e+003,1.281160e+002
1.026156e+003,1.409066e+002
1.028085e+003,1.378308e+002
1.030013e+003,1.206004e+002
1.031942e+003,1.035906e+002
1.033870e+003,8.840147e+001
1.035799e+003,7.408588e+001
1.037727e+003,5.857326e+001
1.039656e+003,4.243190e+001
1.041584e+003,3.264620e+001
1.043513e+003,3.444706e+001
1.045441e+003,3.657158e+001
1.047370e+003,3.641396e+001
1.049298e+003,3.504285e+001
1.051227e+003,3.525485e+001
1.053155e+003,3.815254e+001
1.055083e+003,3.943151e+001
1.057012e+003,3.574741e+001
1.058940e+003,3.132401e+001
1.060869e+003,3.080578e+001
1.062797e+003,3.509894e+001
1.064726e+003,3.754570e+001
1.066654e+003,3.497118e+001
1.068583e+003,3.196507e+001
1.070511e+003,3.150566e+001
1.072440e+003,3.401604e+001
1.074368e+003,3.414785e+001
1.076297e+003,2.858105e+001
1.078225e+003,2.464122e+001
1.080154e+003,2.648721e+001
1.082082e+003,3.187065e+001
1.084010e+003,3.420557e+001
1.085939e+003,3.244839e+001
1.087867e+003,3.040778e+001
1.089796e+003,2.908970e+001
1.091724e+003,2.823691e+001
1.093653e+003,2.749845e+001
1.095581e+003,2.660556e+001
1.097510e+003,2.669797e+001
1.099438e+003,2.916235e+001
1.101367e+003,3.148857e+001
1.103295e+003,3.174344e+001
1.105224e+003,2.968254e+001
1.107152e+003,2.868482e+001
1.109081e+003,2.845908e+001
1.111009e+003,2.956663e+001
1.112938e+003,3.372930e+001
1.114866e+003,3.922025e+001
1.116794e+003,4.199133e+001
1.118723e+003,4.125411e+001
1.120651e+003,3.960305e+001
1.122580e+003,3.672978e+001
1.124508e+003,3.393686e+001
1.126437e+003,3.261984e+001
1.128365e+003,3.310011e+001
1.130294e+003,3.413693e+001
1.132222e+003,3.491274e+001
1.134151e+003,3.690018e+001
1.136079e+003,4.185343e+001
1.138008e+003,4.948749e+001
1.139936e+003,5.469788e+001
1.141865e+003,5.435403e+001
1.143793e+003,5.628785e+001
1.145721e+003,6.740432e+001
1.147650e+003,8.068621e+001
1.149578e+003,8.494903e+001
1.151507e+003,7.813309e+001
1.153435e+003,7.098154e+001
1.155364e+003,6.356943e+001
1.157292e+003,5.888198e+001
1.159221e+003,6.088604e+001
1.161149e+003,7.152156e+001
1.163078e+003,7.457407e+001
1.165006e+003,6.097935e+001
1.166935e+003,5.072718e+001
1.168863e+003,5.121049e+001
1.170792e+003,5.949737e+001
1.172720e+003,6.819543e+001
1.174648e+003,7.865971e+001
1.176577e+003,8.607223e+001
1.178505e+003,8.934902e+001
1.180434e+003,8.910455e+001
1.182362e+003,8.476214e+001
1.184291e+003,7.651919e+001
1.186219e+003,6.986868e+001
1.188148e+003,6.307129e+001
1.190076e+003,6.176376e+001
1.192005e+003,6.883924e+001
1.193933e+003,8.292551e+001
1.195862e+003,9.954145e+001
1.197790e+003,1.202926e+002
1.199719e+003,1.411669e+002
1.201647e+003,1.690480e+002
1.203575e+003,1.918637e+002
1.205504e+003,1.970936e+002
1.207432e+003,1.822969e+002
1.209361e+003,1.654620e+002
1.211289e+003,1.448473e+002
1.213218e+003,1.246700e+002
1.215146e+003,1.061616e+002
1.217075e+003,8.955871e+001
1.219003e+003,7.535771e+001
1.220932e+003,6.388064e+001
1.222860e+003,5.369952e+001
1.224789e+003,4.345783e+001
1.226717e+003,3.521803e+001
1.228646e+003,3.098937e+001
1.230574e+003,3.112858e+001
1.232502e+003,3.161494e+001
1.234431e+003,3.451571e+001
1.236359e+003,3.516899e+001
1.238288e+003,2.938370e+001
1.240216e+003,2.116726e+001
1.242145e+003,1.953136e+001
1.244073e+003,2.893039e+001
1.246002e+003,3.344571e+001
1.247930e+003,2.652189e+001
1.249859e+003,1.910361e+001
1.251787e+003,1.963480e+001
1.253716e+003,2.614547e+001
1.255644e+003,2.993619e+001
1.257573e+003,2.936533e+001
1.259501e+003,2.855445e+001
1.261429e+003,2.920655e+001
1.263358e+003,3.026416e+001
1.265286e+003,3.056137e+001
1.267215e+003,2.999915e+001
1.269143e+003,2.922731e+001
1.271072e+003,2.604180e+001
1.273000e+003,2.513899e+001
1.274929e+003,2.926249e+001
1.276857e+003,3.713230e+001
1.278786e+003,4.443289e+001
1.280714e+003,5.111857e+001
1.282643e+003,5.731798e+001
1.284571e+003,6.397228e+001
1.286500e+003,6.945391e+001
1.288428e+003,7.104384e+001
1.290356e+003,6.932190e+001
1.292285e+003,7.182465e+001
1.294213e+003,8.084115e+001
1.296142e+003,9.017018e+001
1.298070e+003,1.011013e+002
1.299999e+003,1.090324e+002
1.301927e+003,1.072473e+002
1.303856e+003,9.497610e+001
1.305784e+003,8.582950e+001
1.307713e+003,8.531400e+001
1.309641e+003,8.361415e+001
1.311570e+003,7.392762e+001
1.313498e+003,6.030178e+001
1.315427e+003,5.373122e+001
1.317355e+003,5.706566e+001
1.319283e+003,6.137468e+001
1.321212e+003,6.719394e+001
1.323140e+003,7.243697e+001
1.325069e+003,7.536694e+001
1.326997e+003,7.624539e+001
1.328926e+003,7.803177e+001
1.330854e+003,8.301965e+001
1.332783e+003,8.526310e+001
1.334711e+003,8.274591e+001
1.336640e+003,7.783409e+001
1.338568e+003,7.192630e+001
1.340497e+003,6.521561e+001
1.342425e+003,6.013301e+001
1.344354e+003,5.728235e+001
1.346282e+003,5.532190e+001
1.348210e+003,5.491456e+001
1.350139e+003,5.445376e+001
1.352068e+003,5.133274e+001
1.353996e+003,4.524330e+001
1.355924e+003,4.166707e+001
1.357853e+003,4.432291e+001
1.359781e+003,4.540008e+001
1.361710e+003,4.010217e+001
1.363638e+003,3.172576e+001
1.365567e+003,2.679063e+001
1.367495e+003,2.574429e+001
1.369424e+003,2.703939e+001
1.371352e+003,3.363137e+001
1.373281e+003,3.908945e+001
1.375209e+003,3.949247e+001
1.377138e+003,3.641429e+001
1.379066e+003,3.497591e+001
1.380995e+003,3.596481e+001
1.382923e+003,3.700438e+001
1.384851e+003,3.818296e+001
1.386780e+003,3.913590e+001
1.388708e+003,3.825460e+001
1.390637e+003,3.680093e+001
1.392565e+003,4.013649e+001
1.394494e+003,5.010908e+001
1.396422e+003,5.901171e+001
1.398351e+003,6.531097e+001
1.400279e+003,6.964035e+001
1.402208e+003,7.317037e+001
1.404136e+003,7.522267e+001
1.406065e+003,7.205576e+001
1.407993e+003,6.085537e+001
1.409922e+003,5.235744e+001
1.411850e+003,5.235952e+001
1.413778e+003,5.374928e+001
1.415707e+003,5.018774e+001
1.417635e+003,4.258445e+001
1.419564e+003,4.102380e+001
1.421492e+003,4.851889e+001
1.423421e+003,5.674778e+001
1.425349e+003,6.579951e+001
1.427278e+003,7.350060e+001
1.429206e+003,7.738551e+001
1.431135e+003,7.748164e+001
1.433063e+003,7.870112e+001
1.434992e+003,8.388493e+001
1.436920e+003,8.616505e+001
1.438849e+003,8.361259e+001
1.440777e+003,7.882752e+001
1.442705e+003,7.377914e+001
1.444634e+003,6.847698e+001
1.446562e+003,6.225214e+001
1.448491e+003,5.275206e+001
1.450419e+003,4.642814e+001
1.452348e+003,4.626312e+001
1.454276e+003,4.817672e+001
1.456205e+003,4.946593e+001
1.458133e+003,5.004020e+001
1.460062e+003,4.905738e+001
1.461990e+003,4.505530e+001
1.463919e+003,4.343688e+001
1.465847e+003,4.888187e+001
1.467776e+003,5.447392e+001
1.469704e+003,5.407034e+001
1.471632e+003,4.959995e+001
1.473561e+003,4.753046e+001
1.475489e+003,4.833933e+001
1.477418e+003,5.116448e+001
1.479346e+003,5.814257e+001
1.481275e+003,6.457089e+001
1.483203e+003,6.772464e+001
1.485132e+003,6.792065e+001
1.487060e+003,6.616737e+001
1.488989e+003,6.184676e+001
1.490917e+003,5.772209e+001
1.492846e+003,5.510063e+001
1.494774e+003,5.204902e+001
1.496703e+003,4.637190e+001
1.498631e+003,3.965940e+001
1.500559e+003,3.704046e+001
1.502488e+003,4.056983e+001
1.504416e+003,4.229269e+001
1.506345e+003,3.948360e+001
1.508273e+003,3.724069e+001
1.510202e+003,3.786711e+001
1.512130e+003,4.030441e+001
1.514059e+003,4.276573e+001
1.515987e+003,4.577550e+001
1.517916e+003,4.721162e+001
1.519844e+003,4.575945e+001
1.521773e+003,4.458374e+001
1.523701e+003,4.509447e+001
1.525630e+003,4.615707e+001
1.527558e+003,4.627427e+001
1.529486e+003,4.532234e+001
1.531415e+003,4.425433e+001
1.533343e+003,4.224615e+001
1.535272e+003,4.120969e+001
1.537200e+003,4.335842e+001
1.539129e+003,4.519479e+001
1.541057e+003,4.195490e+001
1.542986e+003,3.473785e+001
1.544914e+003,3.320756e+001
1.546843e+003,4.037126e+001
1.548771e+003,4.540466e+001
1.550700e+003,4.477103e+001
1.552628e+003,4.270100e+001
1.554557e+003,4.211442e+001
1.556485e+003,4.201653e+001
1.558413e+003,3.865403e+001
1.560342e+003,3.060258e+001
1.562270e+003,2.890475e+001
1.564199e+003,3.995096e+001
1.566127e+003,5.125324e+001
1.568056e+003,5.469110e+001
1.569984e+003,5.610482e+001
1.571913e+003,6.433175e+001
1.573841e+003,7.899536e+001
1.575770e+003,9.079675e+001
1.577698e+003,9.951076e+001
1.579627e+003,1.035092e+002
1.581555e+003,9.823259e+001
1.583484e+003,9.145838e+001
1.585412e+003,8.802512e+001
1.587340e+003,8.823701e+001
1.589269e+003,9.443233e+001
1.591197e+003,1.086910e+002
1.593126e+003,1.208541e+002
1.595054e+003,1.290251e+002
1.596983e+003,1.338441e+002
1.598911e+003,1.361759e+002
1.600840e+003,1.353071e+002
1.602768e+003,1.290982e+002
1.604697e+003,1.171546e+002
1.606625e+003,1.046958e+002
1.608554e+003,9.043962e+001
1.610482e+003,7.925586e+001
1.612411e+003,7.435878e+001
1.614339e+003,7.193309e+001
1.616267e+003,6.905198e+001
1.618196e+003,6.577625e+001
1.620124e+003,6.243400e+001
1.622053e+003,5.885146e+001
1.623981e+003,5.573344e+001
1.625910e+003,5.320936e+001
1.627838e+003,5.115100e+001
1.629767e+003,5.003513e+001
1.631695e+003,4.912792e+001
1.633624e+003,4.677869e+001
1.635552e+003,4.265588e+001
1.637481e+003,3.955685e+001
1.639409e+003,3.773044e+001
1.641338e+003,3.687329e+001
1.643266e+003,3.775164e+001
1.645194e+003,3.877792e+001
1.647123e+003,3.857796e+001
1.649051e+003,3.737599e+001
1.650980e+003,3.641674e+001
1.652908e+003,3.562544e+001
1.654837e+003,3.524694e+001
1.656765e+003,3.531409e+001
1.658694e+003,3.577782e+001
1.660622e+003,3.670876e+001
1.662551e+003,3.797963e+001
1.664479e+003,3.998299e+001
1.666408e+003,4.290182e+001
1.668336e+003,4.292430e+001
1.670265e+003,3.755156e+001
1.672193e+003,3.432733e+001
1.674121e+003,3.685802e+001
1.676050e+003,3.893872e+001
1.677978e+003,3.573388e+001
1.679907e+003,3.020889e+001
1.681835e+003,2.895596e+001
1.683764e+003,3.316756e+001
1.685692e+003,3.570414e+001
1.687621e+003,3.547625e+001
1.689549e+003,3.496614e+001
1.691478e+003,3.469909e+001
1.693406e+003,3.432092e+001
1.695335e+003,3.326578e+001
1.697263e+003,3.193235e+001
1.699192e+003,3.176679e+001
1.701120e+003,3.328993e+001
1.703048e+003,3.408066e+001
1.704977e+003,3.356972e+001
1.706905e+003,3.286584e+001
1.708834e+003,3.179502e+001
1.710762e+003,3.100076e+001
1.712691e+003,3.092738e+001
1.714619e+003,3.159693e+001
1.716548e+003,3.355875e+001
1.718476e+003,3.817844e+001
1.720405e+003,3.957686e+001
1.722333e+003,3.395571e+001
1.724262e+003,2.953700e+001
1.726190e+003,2.950988e+001
1.728119e+003,3.113472e+001
1.730047e+003,3.231191e+001
1.731975e+003,3.293347e+001
1.733904e+003,3.201479e+001
1.735832e+003,2.882839e+001
1.737761e+003,2.660356e+001
1.739689e+003,2.632332e+001
1.741618e+003,2.623266e+001
1.743546e+003,2.516144e+001
1.745475e+003,2.446941e+001
1.747403e+003,2.610109e+001
1.749332e+003,2.957050e+001
1.751260e+003,3.125513e+001
1.753189e+003,3.102057e+001
1.755117e+003,2.936067e+001
1.757046e+003,2.392145e+001
1.758974e+003,2.093652e+001
1.760902e+003,2.504068e+001
1.762831e+003,3.051761e+001
1.764759e+003,3.144630e+001
1.766688e+003,2.918975e+001
1.768616e+003,3.058119e+001
1.770545e+003,3.672814e+001
1.772473e+003,4.013099e+001
1.774402e+003,3.837555e+001
1.776330e+003,3.598516e+001
1.778259e+003,3.369688e+001
1.780187e+003,3.242685e+001
1.782116e+003,3.391959e+001
1.784044e+003,3.684767e+001
1.785973e+003,3.725264e+001
1.787901e+003,3.490434e+001
1.789829e+003,3.280662e+001
1.791758e+003,3.109534e+001
1.793686e+003,3.028971e+001
1.795615e+003,3.096862e+001
1.797543e+003,3.218421e+001
1.799472e+003,3.356069e+001
1.801400e+003,3.488500e+001
1.803329e+003,3.591798e+001
1.805257e+003,3.663361e+001
1.807186e+003,3.627377e+001
1.809114e+003,3.451926e+001
1.811043e+003,3.238326e+001
1.812971e+003,2.869419e+001
1.814900e+003,2.644304e+001
1.816828e+003,2.821001e+001
1.818756e+003,3.186311e+001
1.820685e+003,3.485038e+001
1.822613e+003,3.713435e+001
1.824542e+003,3.823413e+001
1.826470e+003,3.790503e+001
1.828399e+003,3.720857e+001
1.830327e+003,3.644758e+001
1.832256e+003,3.516552e+001
1.834184e+003,3.195344e+001
1.836113e+003,2.920821e+001
1.838041e+003,2.998043e+001
1.839970e+003,3.314449e+001
1.841898e+003,3.440511e+001
1.843827e+003,3.290582e+001
1.845755e+003,3.272939e+001
1.847684e+003,3.585662e+001
1.849612e+003,3.737857e+001
1.851541e+003,3.461200e+001
1.853469e+003,3.190676e+001
1.855397e+003,3.258837e+001
1.857326e+003,3.472097e+001
1.859254e+003,3.519865e+001
1.861183e+003,3.400031e+001
1.863111e+003,3.185335e+001
1.865040e+003,2.680099e+001
1.866968e+003,2.515992e+001
1.868897e+003,3.107218e+001
1.870825e+003,3.547215e+001
1.872754e+003,3.405423e+001
1.874682e+003,3.157873e+001
1.876611e+003,3.198182e+001
1.878539e+003,3.448293e+001
1.880468e+003,3.744775e+001
1.882396e+003,4.106801e+001
1.884324e+003,4.137063e+001
1.886253e+003,3.625217e+001
1.888181e+003,3.319468e+001
1.890110e+003,3.593808e+001
1.892038e+003,3.828502e+001
1.893967e+003,3.610594e+001
1.895895e+003,3.273736e+001
1.897824e+003,3.145800e+001
1.899752e+003,3.182816e+001
1.901681e+003,3.270355e+001
1.903609e+003,3.410805e+001
1.905538e+003,3.497430e+001
1.907466e+003,3.507044e+001
1.909395e+003,3.492868e+001
1.911323e+003,3.541146e+001
1.913251e+003,3.489307e+001
1.915180e+003,3.044724e+001
1.917108e+003,2.584274e+001
1.919037e+003,2.701791e+001
1.920965e+003,3.276993e+001
1.922894e+003,3.563240e+001
1.924822e+003,3.470871e+001
1.926751e+003,3.440580e+001
1.928679e+003,3.529270e+001
1.930608e+003,3.621506e+001
1.932536e+003,3.706364e+001
1.934465e+003,3.778714e+001
1.936393e+003,3.930406e+001
1.938322e+003,4.002491e+001
1.940250e+003,3.642395e+001
1.942178e+003,2.954978e+001
1.944107e+003,2.728205e+001
1.946035e+003,3.071391e+001
1.947964e+003,3.443105e+001
1.949892e+003,3.921948e+001
1.951821e+003,4.215043e+001
1.953749e+003,4.180134e+001
1.955678e+003,4.041532e+001
1.957606e+003,3.866713e+001
1.959535e+003,3.675478e+001
1.961463e+003,3.421623e+001
1.963392e+003,3.174723e+001
1.965320e+003,3.215606e+001
1.967249e+003,3.555313e+001
1.969177e+003,3.743217e+001
1.971105e+003,3.668654e+001
1.973034e+003,3.655317e+001
1.974962e+003,3.867073e+001
1.976891e+003,4.043546e+001
1.978819e+003,4.051170e+001
1.980748e+003,3.985818e+001
1.982676e+003,3.917224e+001
1.984605e+003,3.847052e+001
1.986533e+003,3.746962e+001
1.988462e+003,3.604510e+001
1.990390e+003,3.657915e+001
1.992319e+003,4.132418e+001
1.994247e+003,4.407607e+001
1.996176e+003,4.465412e+001
1.998104e+003,4.344036e+001
2.000032e+003,3.785564e+001
2.001961e+003,3.345165e+001
2.003889e+003,3.593751e+001
2.005818e+003,4.046338e+001
2.007746e+003,3.848665e+001
2.009675e+003,3.166286e+001
2.011603e+003,3.119263e+001
2.013532e+003,3.779557e+001
2.015460e+003,4.252383e+001
2.017389e+003,4.448057e+001
2.019317e+003,4.453431e+001
2.021246e+003,4.139576e+001
2.023174e+003,3.892748e+001
2.025103e+003,3.989411e+001
2.027031e+003,4.144463e+001
2.028959e+003,4.055220e+001
2.030888e+003,3.877795e+001
2.032816e+003,3.924370e+001
2.034745e+003,4.182735e+001
2.036673e+003,4.480336e+001
2.038602e+003,4.972219e+001
2.040530e+003,5.053880e+001
2.042459e+003,4.396690e+001
2.044387e+003,3.820544e+001
2.046316e+003,3.341125e+001
2.048244e+003,3.110787e+001
2.050173e+003,3.371053e+001
2.052101e+003,3.753116e+001
2.054030e+003,3.806456e+001
2.055958e+003,3.754156e+001
2.057886e+003,4.276459e+001
2.059815e+003,5.273433e+001
2.061743e+003,5.628214e+001
2.063672e+003,5.221711e+001
2.065600e+003,4.789875e+001
2.067529e+003,4.375880e+001
2.069457e+003,4.113555e+001
2.071386e+003,4.038028e+001
2.073314e+003,4.129251e+001
2.075243e+003,4.549417e+001
2.077171e+003,4.969278e+001
2.079100e+003,5.062018e+001
2.081028e+003,4.958824e+001
2.082957e+003,4.898106e+001
2.084885e+003,4.876519e+001
2.086813e+003,4.859773e+001
2.088742e+003,4.865625e+001
2.090670e+003,4.809167e+001
2.092599e+003,4.593763e+001
2.094527e+003,4.509401e+001
2.096456e+003,4.687709e+001
2.098384e+003,4.871689e+001
2.100313e+003,4.989910e+001
2.102241e+003,5.064661e+001
2.104170e+003,5.137725e+001
2.106098e+003,5.157228e+001
2.108027e+003,4.974506e+001
2.109955e+003,4.694598e+001
2.111884e+003,4.704987e+001
2.113812e+003,5.006120e+001
2.115740e+003,5.009654e+001
2.117669e+003,4.531546e+001
2.119597e+003,4.249900e+001
2.121526e+003,4.267912e+001
2.123454e+003,4.448553e+001
2.125383e+003,5.010801e+001
2.127311e+003,5.414983e+001
2.129240e+003,5.214191e+001
2.131168e+003,4.917788e+001
2.133097e+003,5.039957e+001
2.135025e+003,5.349076e+001
2.136954e+003,5.446302e+001
2.138882e+003,5.355436e+001
2.140811e+003,5.175634e+001
2.142739e+003,4.910838e+001
2.144667e+003,4.624744e+001
2.146596e+003,4.283103e+001
2.148524e+003,4.114544e+001
2.150453e+003,4.228439e+001
2.152381e+003,4.390076e+001
2.154310e+003,4.525123e+001
2.156238e+003,4.692356e+001
2.158167e+003,5.070185e+001
2.160095e+003,5.345885e+001
2.162024e+003,5.040873e+001
2.163952e+003,4.555989e+001
2.165881e+003,4.728535e+001
2.167809e+003,5.381981e+001
2.169738e+003,5.407452e+001
2.171666e+003,4.788477e+001
2.173594e+003,4.434175e+001
2.175523e+003,4.400994e+001
2.177451e+003,4.610411e+001
2.179380e+003,5.197548e+001
2.181308e+003,5.611445e+001
2.183237e+003,5.709060e+001
2.185165e+003,5.581513e+001
2.187094e+003,5.072170e+001
2.189022e+003,4.576395e+001
2.190951e+003,4.370784e+001
2.192879e+003,4.344181e+001
2.194808e+003,4.410366e+001
2.196736e+003,4.524009e+001
2.198665e+003,4.556844e+001
2.200593e+003,4.509672e+001
2.202521e+003,4.472521e+001
2.204450e+003,4.447908e+001
2.206378e+003,4.397651e+001
2.208307e+003,4.317472e+001
2.210235e+003,4.216574e+001
2.212164e+003,4.057378e+001
2.214092e+003,3.975255e+001
2.216021e+003,4.059326e+001
2.217949e+003,4.172829e+001
2.219878e+003,4.239063e+001
2.221806e+003,4.324745e+001
2.223735e+003,4.529924e+001
2.225663e+003,4.746504e+001
2.227592e+003,4.844743e+001
2.229520e+003,4.834097e+001
2.231448e+003,4.661104e+001
2.233377e+003,4.369611e+001
2.235305e+003,4.491139e+001
2.237234e+003,5.047854e+001
2.239162e+003,5.240718e+001
2.241091e+003,4.916497e+001
2.243019e+003,4.730247e+001
2.244948e+003,4.846801e+001
2.246876e+003,4.992775e+001
2.248805e+003,5.299257e+001
2.250733e+003,5.326449e+001
2.252662e+003,4.430868e+001
2.254590e+003,3.777016e+001
2.256519e+003,4.522530e+001
2.258447e+003,5.455575e+001
2.260375e+003,5.243932e+001
2.262304e+003,4.490012e+001
2.264232e+003,4.188531e+001
2.266161e+003,4.210421e+001
2.268089e+003,4.123168e+001
2.270018e+003,3.960313e+001
2.271946e+003,4.142931e+001
2.273875e+003,4.756515e+001
2.275803e+003,5.059996e+001
2.277732e+003,4.897198e+001
2.279660e+003,4.664550e+001
2.281589e+003,4.238895e+001
2.283517e+003,3.996543e+001
2.285446e+003,3.915899e+001
2.287374e+003,4.144852e+001
2.289302e+003,5.235290e+001
2.291231e+003,6.013033e+001
2.293159e+003,5.512722e+001
2.295088e+003,4.770207e+001
2.297016e+003,4.623864e+001
2.298945e+003,4.807442e+001
2.300873e+003,5.007749e+001
2.302802e+003,5.237642e+001
2.304730e+003,5.635532e+001
2.306659e+003,6.130615e+001
2.308587e+003,6.093045e+001
2.310516e+003,5.427549e+001
2.312444e+003,4.999070e+001
2.314373e+003,4.796127e+001
2.316301e+003,4.953404e+001
2.318229e+003,5.618723e+001
2.320158e+003,6.068071e+001
2.322086e+003,6.139143e+001
2.324015e+003,6.050895e+001
2.325943e+003,5.699958e+001
2.327872e+003,5.452070e+001
2.329800e+003,5.521241e+001
2.331729e+003,5.632774e+001
2.333657e+003,5.635410e+001
2.335586e+003,5.600236e+001
2.337514e+003,5.645015e+001
2.339443e+003,5.636910e+001
2.341371e+003,5.300961e+001
2.343300e+003,4.847978e+001
2.345228e+003,4.688242e+001
2.347156e+003,4.759921e+001
2.349085e+003,4.885241e+001
2.351013e+003,5.059081e+001
2.352942e+003,5.245766e+001
2.354870e+003,5.468723e+001
2.356799e+003,5.560984e+001
2.358727e+003,5.451085e+001
2.360656e+003,5.440377e+001
2.362584e+003,5.657260e+001
2.364513e+003,5.570511e+001
2.366441e+003,4.876334e+001
2.368370e+003,4.474094e+001
2.370298e+003,4.704811e+001
2.372227e+003,5.104288e+001
2.374155e+003,5.756176e+001
2.376083e+003,6.158053e+001
2.378012e+003,5.685503e+001
2.379940e+003,5.308660e+001
2.381869e+003,6.041395e+001
2.383797e+003,6.907545e+001
2.385726e+003,6.922579e+001
2.387654e+003,6.463038e+001
2.389583e+003,5.803633e+001
2.391511e+003,5.198039e+001
2.393440e+003,5.204609e+001
2.395368e+003,5.698221e+001
2.397297e+003,6.415319e+001
2.399225e+003,7.281117e+001
2.401154e+003,7.136935e+001
2.403082e+003,5.751467e+001
2.405010e+003,5.280155e+001
2.406939e+003,5.966366e+001
2.408867e+003,6.321174e+001
2.410796e+003,6.193596e+001
2.412724e+003,6.119390e+001
2.414653e+003,6.193946e+001
2.416581e+003,6.267404e+001
2.418510e+003,6.342155e+001
2.420438e+003,6.330837e+001
2.422367e+003,6.134002e+001
2.424295e+003,5.952964e+001
2.426224e+003,5.694035e+001
2.428152e+003,5.688342e+001
2.430081e+003,6.355614e+001
2.432009e+003,6.989319e+001
2.433938e+003,7.165411e+001
2.435866e+003,7.177770e+001
2.437794e+003,7.294521e+001
2.439723e+003,7.341167e+001
2.441651e+003,7.052025e+001
2.443580e+003,6.617630e+001
2.445508e+003,6.237288e+001
2.447437e+003,5.980556e+001
2.449365e+003,6.092158e+001
2.451294e+003,6.452679e+001
2.453222e+003,6.688258e+001
2.455151e+003,6.771096e+001
2.457079e+003,6.450613e+001
2.459008e+003,5.785520e+001
2.460936e+003,5.513226e+001
2.462865e+003,5.703188e+001
2.464793e+003,5.952718e+001
2.466721e+003,6.390194e+001
2.468650e+003,6.421061e+001
2.470578e+003,5.876360e+001
2.472507e+003,5.605727e+001
2.474435e+003,5.734143e+001
2.476364e+003,5.954010e+001
2.478292e+003,6.279188e+001
2.480221e+003,6.479911e+001
2.482149e+003,6.422265e+001
2.484078e+003,6.361724e+001
2.486006e+003,6.338467e+001
2.487935e+003,6.351294e+001
2.489863e+003,6.409988e+001
2.491792e+003,6.492928e+001
2.493720e+003,6.685232e+001
2.495648e+003,6.754231e+001
2.497577e+003,6.490285e+001
2.499505e+003,6.163737e+001
2.501434e+003,5.919426e+001
2.503362e+003,5.730247e+001
2.505291e+003,5.528296e+001
2.507219e+003,5.420446e+001
2.509148e+003,5.550042e+001
2.511076e+003,5.808421e+001
2.513005e+003,6.140145e+001
2.514933e+003,6.454005e+001
2.516862e+003,6.629909e+001
2.518790e+003,6.687543e+001
2.520719e+003,6.704892e+001
2.522647e+003,6.618675e+001
2.524575e+003,6.083673e+001
2.526504e+003,5.313873e+001
2.528432e+003,5.305676e+001
2.530361e+003,5.894599e+001
2.532289e+003,6.113755e+001
2.534218e+003,6.024242e+001
2.536146e+003,6.118179e+001
2.538075e+003,6.407114e+001
2.540003e+003,6.616320e+001
2.541932e+003,6.732486e+001
2.543860e+003,6.887486e+001
2.545789e+003,7.121976e+001
2.547717e+003,7.121912e+001
2.549646e+003,6.859115e+001
2.551574e+003,6.558337e+001
2.553502e+003,6.214324e+001
2.555431e+003,6.017528e+001
2.557359e+003,6.028154e+001
2.559288e+003,6.081357e+001
2.561216e+003,6.091399e+001
2.563145e+003,6.315982e+001
2.565073e+003,6.990560e+001
2.567002e+003,7.194427e+001
2.568930e+003,6.489217e+001
2.570859e+003,6.232603e+001
2.572787e+003,7.137462e+001
2.574716e+003,7.731063e+001
2.576644e+003,7.557326e+001
2.578573e+003,7.100895e+001
2.580501e+003,5.905461e+001
2.582429e+003,5.399578e+001
2.584358e+003,6.508983e+001
2.586287e+003,7.279171e+001
2.588215e+003,6.591891e+001
2.590144e+003,6.055735e+001
2.592072e+003,6.848647e+001
2.594000e+003,7.351698e+001
2.595929e+003,6.234873e+001
2.597857e+003,5.357827e+001
2.599786e+003,6.191215e+001
2.601714e+003,6.909355e+001
2.603643e+003,6.110170e+001
2.605571e+003,5.443677e+001
2.607500e+003,6.443684e+001
2.609428e+003,7.449033e+001
2.611357e+003,7.002154e+001
2.613285e+003,6.319075e+001
2.615214e+003,6.384091e+001
2.617142e+003,6.670648e+001
2.619071e+003,6.879068e+001
2.620999e+003,6.923360e+001
2.622927e+003,6.543220e+001
2.624856e+003,6.158430e+001
2.626784e+003,6.268034e+001
2.628713e+003,6.529983e+001
2.630641e+003,6.583815e+001
2.632570e+003,6.543026e+001
2.634498e+003,6.573174e+001
2.636427e+003,6.565366e+001
2.638355e+003,6.282058e+001
2.640284e+003,5.975632e+001
2.642212e+003,6.011308e+001
2.644141e+003,6.207547e+001
2.646069e+003,6.347921e+001
2.647998e+003,6.421968e+001
2.649926e+003,6.360488e+001
2.651854e+003,6.258720e+001
2.653783e+003,6.218336e+001
2.655711e+003,6.292693e+001
2.657640e+003,6.790874e+001
2.659568e+003,7.316839e+001
2.661497e+003,6.862470e+001
2.663425e+003,6.057666e+001
2.665354e+003,6.350708e+001
2.667282e+003,7.166653e+001
2.669211e+003,7.326556e+001
2.671139e+003,7.065023e+001
2.673068e+003,6.726134e+001
2.674996e+003,6.393550e+001
2.676925e+003,6.316869e+001
2.678853e+003,6.356718e+001
2.680781e+003,6.035298e+001
2.682710e+003,5.634607e+001
2.684638e+003,6.099955e+001
2.686567e+003,6.872685e+001
2.688495e+003,6.558730e+001
2.690424e+003,5.716496e+001
2.692352e+003,5.721116e+001
2.694281e+003,6.247046e+001
2.696209e+003,6.516727e+001
2.698138e+003,6.606334e+001
2.700066e+003,6.564707e+001
2.701995e+003,6.569389e+001
2.703923e+003,7.305946e+001
2.705852e+003,8.231379e+001
2.707780e+003,7.812226e+001
2.709708e+003,6.643468e+001
2.711637e+003,6.080130e+001
2.713565e+003,6.040224e+001
2.715494e+003,6.590168e+001
2.717422e+003,7.353316e+001
2.719351e+003,7.548457e+001
2.721279e+003,7.400657e+001
2.723208e+003,7.398630e+001
2.725136e+003,7.416441e+001
2.727065e+003,7.026734e+001
2.728993e+003,6.543228e+001
2.730922e+003,6.672822e+001
2.732850e+003,7.102709e+001
2.734779e+003,7.282306e+001
2.736707e+003,7.386689e+001
2.738635e+003,7.970370e+001
2.740564e+003,8.544736e+001
2.742492e+003,8.110813e+001
2.744421e+003,7.186166e+001
2.746349e+003,6.322128e+001
2.748278e+003,5.708388e+001
2.750206e+003,5.853101e+001
2.752135e+003,6.227283e+001
2.754063e+003,5.927995e+001
2.755992e+003,5.505478e+001
2.757920e+003,5.728395e+001
2.759849e+003,6.227970e+001
2.761777e+003,6.738623e+001
2.763706e+003,7.146480e+001
2.765634e+003,7.340878e+001
2.767563e+003,7.349464e+001
2.769491e+003,7.144875e+001
2.771419e+003,6.825697e+001
2.773348e+003,6.369352e+001
2.775276e+003,5.976369e+001
2.777205e+003,5.721420e+001
2.779133e+003,5.732271e+001
2.781062e+003,6.423432e+001
2.782990e+003,7.046806e+001
2.784919e+003,6.864227e+001
2.786847e+003,6.606398e+001
2.788776e+003,6.717046e+001
2.790704e+003,6.926947e+001
2.792633e+003,7.225459e+001
2.794561e+003,7.352926e+001
2.796490e+003,7.047090e+001
2.798418e+003,6.697869e+001
2.800346e+003,6.240282e+001
2.802275e+003,6.207811e+001
2.804203e+003,7.390981e+001
2.806132e+003,8.214803e+001
2.808060e+003,7.807148e+001
2.809989e+003,7.276718e+001
2.811917e+003,6.781593e+001
2.813846e+003,6.590421e+001
2.815774e+003,6.979019e+001
2.817703e+003,7.209072e+001
2.819631e+003,6.707153e+001
2.821560e+003,6.667761e+001
2.823488e+003,7.556483e+001
2.825417e+003,8.291586e+001
2.827345e+003,8.799330e+001
2.829273e+003,8.797433e+001
2.831202e+003,7.861529e+001
2.833130e+003,7.659450e+001
2.835059e+003,8.817159e+001
2.836987e+003,9.632711e+001
2.838916e+003,1.002752e+002
2.840844e+003,1.014361e+002
2.842773e+003,9.907537e+001
2.844701e+003,1.077967e+002
2.846630e+003,1.322860e+002
2.848558e+003,1.417406e+002
2.850487e+003,1.353332e+002
2.852415e+003,1.358967e+002
2.854344e+003,1.425650e+002
2.856272e+003,1.431127e+002
2.858200e+003,1.378991e+002
2.860129e+003,1.329167e+002
2.862057e+003,1.285138e+002
2.863986e+003,1.284942e+002
2.865914e+003,1.304278e+002
2.867843e+003,1.255045e+002
2.869771e+003,1.165447e+002
2.871700e+003,1.084673e+002
2.873628e+003,1.022209e+002
2.875557e+003,1.007613e+002
2.877485e+003,1.013575e+002
2.879414e+003,9.832005e+001
2.881342e+003,9.646272e+001
2.883271e+003,1.047157e+002
2.885199e+003,1.128426e+002
2.887127e+003,1.057249e+002
2.889056e+003,9.984702e+001
2.890984e+003,1.116147e+002
2.892913e+003,1.249620e+002
2.894841e+003,1.304682e+002
2.896770e+003,1.337173e+002
2.898698e+003,1.329282e+002
2.900627e+003,1.381962e+002
2.902555e+003,1.534852e+002
2.904484e+003,1.745541e+002
2.906412e+003,1.984460e+002
2.908341e+003,2.320498e+002
2.910269e+003,2.787840e+002
2.912198e+003,3.345508e+002
2.914126e+003,4.042991e+002
2.916054e+003,4.649009e+002
2.917983e+003,5.153602e+002
2.919911e+003,5.445835e+002
2.921840e+003,5.526064e+002
2.923768e+003,5.244091e+002
2.925697e+003,4.553235e+002
2.927625e+003,3.957640e+002
2.929554e+003,3.477090e+002
2.931482e+003,3.256770e+002
2.933411e+003,3.263811e+002
2.935339e+003,3.242815e+002
2.937268e+003,3.208104e+002
2.939196e+003,3.243617e+002
2.941125e+003,3.305641e+002
2.943053e+003,3.301055e+002
2.944981e+003,3.244255e+002
2.946910e+003,3.140956e+002
2.948838e+003,3.016893e+002
2.950767e+003,2.904144e+002
2.952695e+003,2.789844e+002
2.954624e+003,2.578102e+002
2.956552e+003,2.475329e+002
2.958481e+003,2.753805e+002
2.960409e+003,3.007015e+002
2.962338e+003,3.041788e+002
2.964266e+003,2.940488e+002
2.966195e+003,2.643603e+002
2.968123e+003,2.411878e+002
2.970052e+003,2.396105e+002
2.971980e+003,2.331822e+002
2.973908e+003,2.164060e+002
2.975837e+003,2.027144e+002
2.977765e+003,1.939004e+002
2.979694e+003,1.870292e+002
2.981622e+003,1.833733e+002
2.983551e+003,1.694589e+002
2.985479e+003,1.451492e+002
2.987408e+003,1.404187e+002
2.989336e+003,1.505684e+002
2.991265e+003,1.440872e+002
2.993193e+003,1.291132e+002
2.995122e+003,1.359425e+002
2.997050e+003,1.541219e+002
2.998979e+003,1.635465e+002
3.000907e+003,1.678880e+002
3.002835e+003,1.729077e+002
3.004764e+003,1.739874e+002
3.006692e+003,1.612982e+002
3.008621e+003,1.499340e+002
3.010549e+003,1.502850e+002
3.012478e+003,1.535465e+002
3.014406e+003,1.527675e+002
3.016335e+003,1.582614e+002
3.018263e+003,1.785476e+002
3.020192e+003,1.955392e+002
3.022120e+003,2.045563e+002
3.024049e+003,2.197184e+002
3.025977e+003,2.440626e+002
3.027906e+003,2.739948e+002
3.029834e+003,3.107600e+002
3.031762e+003,3.403248e+002
3.033691e+003,3.624984e+002
3.035619e+003,3.794574e+002
3.037548e+003,3.896266e+002
3.039476e+003,3.764200e+002
3.041405e+003,3.551172e+002
3.043333e+003,3.537906e+002
3.045262e+003,3.814443e+002
3.047190e+003,4.450374e+002
3.049119e+003,5.467875e+002
3.051047e+003,7.238951e+002
3.052976e+003,8.892048e+002
3.054904e+003,9.973848e+002
3.056833e+003,1.060207e+003
3.058761e+003,1.071999e+003
3.060689e+003,1.061317e+003
3.062618e+003,1.045032e+003
3.064546e+003,9.851688e+002
3.066475e+003,8.733553e+002
3.068403e+003,7.407831e+002
3.070332e+003,5.815198e+002
3.072260e+003,4.519226e+002
3.074189e+003,3.518056e+002
3.076117e+003,2.786769e+002
3.078046e+003,2.299869e+002
3.079974e+003,1.961680e+002
3.081903e+003,1.739931e+002
3.083831e+003,1.596545e+002
3.085760e+003,1.500746e+002
3.087688e+003,1.425624e+002
3.089616e+003,1.357380e+002
3.091545e+003,1.256327e+002
3.093473e+003,1.200901e+002
3.095402e+003,1.294510e+002
3.097330e+003,1.339288e+002
3.099259e+003,1.253439e+002
3.101187e+003,1.182267e+002
3.103116e+003,1.191058e+002
3.105044e+003,1.147380e+002
3.106973e+003,1.038591e+002
3.108901e+003,1.002216e+002
3.110830e+003,1.040496e+002
3.112758e+003,1.025596e+002
3.114687e+003,9.700928e+001
3.116615e+003,9.388643e+001
3.118543e+003,9.246630e+001
3.120472e+003,9.235741e+001
3.122400e+003,9.165188e+001
3.124329e+003,8.734311e+001
3.126257e+003,8.242692e+001
3.128186e+003,7.736797e+001
3.130114e+003,7.573192e+001
3.132043e+003,8.428020e+001
3.133971e+003,8.702840e+001
3.135900e+003,7.566063e+001
3.137828e+003,6.989690e+001
3.139757e+003,7.216241e+001
3.141685e+003,7.368576e+001
3.143614e+003,7.354171e+001
3.145542e+003,7.323576e+001
3.147470e+003,7.276646e+001
3.149399e+003,7.202646e+001
3.151327e+003,7.129536e+001
3.153256e+003,6.942627e+001
3.155184e+003,6.975203e+001
3.157113e+003,7.891603e+001
3.159041e+003,8.889919e+001
3.160970e+003,9.572174e+001
3.162898e+003,9.907174e+001
3.164827e+003,9.803658e+001
3.166755e+003,9.458884e+001
3.168684e+003,8.884792e+001
3.170612e+003,8.236047e+001
3.172541e+003,7.534770e+001
3.174469e+003,6.610849e+001
3.176397e+003,5.483512e+001
3.178326e+003,6.027809e+001
3.180254e+003,7.442392e+001
3.182183e+003,7.299165e+001
3.184111e+003,6.419447e+001
3.186040e+003,5.752020e+001
3.187968e+003,5.531947e+001
3.189897e+003,6.231081e+001
3.191825e+003,6.899863e+001
3.193754e+003,6.965161e+001
3.195682e+003,7.040978e+001
3.197611e+003,7.293542e+001
3.199539e+003,7.460860e+001
3.201468e+003,7.516949e+001
3.203396e+003,7.332976e+001
3.205324e+003,6.911169e+001
3.207253e+003,6.528302e+001
3.209181e+003,6.199087e+001
3.211110e+003,6.075097e+001
3.213038e+003,5.913560e+001
3.214967e+003,5.109945e+001
3.216895e+003,4.388268e+001
3.218824e+003,4.391001e+001
3.220752e+003,4.505692e+001
3.222681e+003,4.344823e+001
3.224609e+003,4.423827e+001
3.226538e+003,4.874224e+001
3.228466e+003,5.440753e+001
3.230395e+003,6.157126e+001
3.232323e+003,5.633414e+001
3.234251e+003,4.078766e+001
3.236180e+003,3.761823e+001
3.238108e+003,4.226318e+001
3.240037e+003,4.679264e+001
3.241965e+003,5.016306e+001
3.243894e+003,5.081378e+001
3.245822e+003,5.028212e+001
3.247751e+003,4.875495e+001
3.249679e+003,4.779390e+001
3.251608e+003,4.939153e+001
3.253536e+003,4.825287e+001
3.255465e+003,4.376221e+001
3.257393e+003,3.782993e+001
3.259322e+003,3.140516e+001
3.261250e+003,3.851576e+001
3.263178e+003,5.249547e+001
3.265107e+003,5.074219e+001
3.267035e+003,4.492749e+001
3.268964e+003,5.220986e+001
3.270892e+003,5.677074e+001
3.272821e+003,4.203159e+001
3.274749e+003,3.397149e+001
3.276678e+003,4.494212e+001
3.278606e+003,5.139623e+001
3.280535e+003,4.886268e+001
3.282463e+003,4.873746e+001
3.284392e+003,5.069313e+001
3.286320e+003,4.886779e+001
3.288249e+003,4.493851e+001
3.290177e+003,4.447049e+001
3.292105e+003,4.355616e+001
3.294034e+003,3.523605e+001
3.295962e+003,2.911740e+001
3.297891e+003,3.267477e+001
3.299819e+003,3.718240e+001
3.301748e+003,4.067733e+001
3.303676e+003,4.516906e+001
3.305605e+003,5.172251e+001
3.307533e+003,5.378352e+001
3.309462e+003,5.179381e+001
3.311390e+003,4.623968e+001
3.313319e+003,4.076869e+001
3.315247e+003,4.356868e+001
3.317176e+003,4.724699e+001
3.319104e+003,4.461860e+001
3.321032e+003,4.212363e+001
3.322961e+003,4.204935e+001
3.324889e+003,4.488400e+001
3.326818e+003,5.226106e+001
3.328746e+003,4.833304e+001
3.330675e+003,3.350490e+001
3.332603e+003,3.500321e+001
3.334532e+003,4.564914e+001
3.336460e+003,4.363576e+001
3.338389e+003,3.760422e+001
3.340317e+003,3.485774e+001
3.342246e+003,3.513216e+001
3.344174e+003,4.063636e+001
3.346103e+003,4.325570e+001
3.348031e+003,4.013073e+001
3.349959e+003,3.923278e+001
3.351888e+003,4.138774e+001
3.353816e+003,4.089363e+001
3.355745e+003,3.920356e+001
3.357673e+003,4.251457e+001
3.359602e+003,4.542678e+001
3.361530e+003,3.802567e+001
3.363459e+003,3.105622e+001
3.365387e+003,3.148209e+001
3.367316e+003,3.210662e+001
3.369244e+003,3.050303e+001
3.371173e+003,3.159274e+001
3.373101e+003,3.558720e+001
3.375030e+003,3.946954e+001
3.376958e+003,4.226634e+001
3.378886e+003,3.998053e+001
3.380815e+003,3.563908e+001
3.382743e+003,3.068921e+001
3.384672e+003,2.878415e+001
3.386600e+003,3.509317e+001
3.388529e+003,3.873122e+001
3.390457e+003,3.708310e+001
3.392386e+003,3.514833e+001
3.394314e+003,3.332112e+001
3.396243e+003,3.644464e+001
3.398171e+003,4.167465e+001
3.400100e+003,4.211069e+001
3.402028e+003,4.044264e+001
3.403957e+003,3.971235e+001
3.405885e+003,3.754474e+001
3.407813e+003,2.959412e+001
3.409742e+003,2.959563e+001
3.411670e+003,4.224692e+001
3.413599e+003,4.536899e+001
3.415527e+003,4.015014e+001
3.417456e+003,4.045679e+001
3.419384e+003,4.312794e+001
3.421313e+003,4.072420e+001
3.423241e+003,3.904844e+001
3.425170e+003,4.544830e+001
3.427098e+003,4.729239e+001
3.429027e+003,3.814126e+001
3.430955e+003,3.763693e+001
3.432884e+003,4.822058e+001
3.434812e+003,4.659942e+001
3.436740e+003,3.663366e+001
3.438669e+003,3.147485e+001
3.440597e+003,3.030327e+001
3.442526e+003,3.649379e+001
3.444454e+003,3.848702e+001
3.446383e+003,2.718005e+001
3.448311e+003,2.539219e+001
3.450240e+003,4.236210e+001
3.452168e+003,4.683536e+001
3.454097e+003,4.099037e+001
3.456025e+003,4.292992e+001
3.457954e+003,4.674969e+001
3.459882e+003,4.025155e+001
3.461811e+003,3.695149e+001
3.463739e+003,4.856799e+001
3.465667e+003,5.408417e+001
3.467596e+003,4.223362e+001
3.469524e+003,3.764511e+001
3.471453e+003,3.949429e+001
3.473381e+003,3.680775e+001
3.475310e+003,3.272423e+001
3.477238e+003,3.484135e+001
3.479167e+003,3.806932e+001
3.481095e+003,3.921608e+001
3.483024e+003,3.888893e+001
3.484952e+003,3.590162e+001
3.486881e+003,3.829585e+001
3.488809e+003,4.576031e+001
3.490738e+003,4.230882e+001
3.492666e+003,3.403019e+001
3.494594e+003,3.793864e+001
3.496523e+003,4.337337e+001
3.498451e+003,4.106994e+001
3.500380e+003,3.910288e+001
3.502308e+003,3.994163e+001
3.504237e+003,3.969257e+001
3.506165e+003,3.786875e+001
3.508094e+003,3.893605e+001
3.510022e+003,4.052610e+001
3.511951e+003,3.436901e+001
3.513879e+003,2.933261e+001
3.515808e+003,3.562254e+001
3.517736e+003,4.047556e+001
3.519665e+003,4.030777e+001
3.521593e+003,3.951814e+001
3.523521e+003,3.860342e+001
3.525450e+003,3.946115e+001
3.527378e+003,4.107502e+001
3.529307e+003,4.235769e+001
3.531235e+003,4.178127e+001
3.533164e+003,3.588264e+001
3.535092e+003,3.382751e+001
3.537021e+003,4.120370e+001
3.538949e+003,4.133406e+001
3.540878e+003,3.495786e+001
3.542806e+003,3.210831e+001
3.544735e+003,3.285052e+001
3.546663e+003,4.100452e+001
3.548592e+003,4.664844e+001
3.550520e+003,4.291845e+001
3.552448e+003,3.914002e+001
3.554377e+003,3.710669e+001
3.556305e+003,3.673124e+001
3.558234e+003,3.808229e+001
3.560162e+003,4.285045e+001
3.562091e+003,4.687761e+001
3.564019e+003,4.371804e+001
3.565948e+003,3.975016e+001
3.567876e+003,3.760381e+001
3.569805e+003,3.539841e+001
3.571733e+003,3.301802e+001
3.573662e+003,3.631284e+001
3.575590e+003,4.227259e+001
3.577519e+003,4.415242e+001
3.579447e+003,4.204278e+001
3.581376e+003,3.158021e+001
3.583304e+003,2.742312e+001
3.585233e+003,3.547767e+001
3.587161e+003,3.834534e+001
3.589090e+003,3.593021e+001
3.591018e+003,4.000546e+001
3.592947e+003,4.509275e+001
3.594875e+003,4.194998e+001
3.596803e+003,3.756384e+001
3.598732e+003,3.560155e+001
3.600660e+003,3.303595e+001
3.602589e+003,2.956425e+001
3.604517e+003,3.094389e+001
3.606446e+003,3.425634e+001
3.608374e+003,2.698803e+001
3.610303e+003,2.135515e+001
3.612231e+003,3.052762e+001
3.614160e+003,3.841123e+001
3.616088e+003,4.141476e+001
3.618017e+003,4.199599e+001
3.619945e+003,4.048226e+001
3.621874e+003,3.576968e+001
3.623802e+003,3.127504e+001
3.625730e+003,3.288211e+001
3.627659e+003,3.254785e+001
3.629587e+003,2.379509e+001
3.631516e+003,2.555183e+001
3.633444e+003,4.021104e+001
3.635373e+003,4.659437e+001
3.637301e+003,4.620954e+001
3.639230e+003,3.750071e+001
3.641158e+003,3.215923e+001
3.643087e+003,4.292531e+001
3.645015e+003,4.777836e+001
3.646944e+003,4.330761e+001
3.648872e+003,4.274945e+001
3.650801e+003,4.385793e+001
3.652729e+003,3.424125e+001
3.654657e+003,2.536401e+001
3.656586e+003,2.953263e+001
3.658514e+003,3.130963e+001
3.660443e+003,2.679156e+001
3.662371e+003,2.695687e+001
3.664300e+003,3.118952e+001
3.666228e+003,3.296971e+001
3.668157e+003,3.557045e+001
3.670085e+003,4.624274e+001
3.672014e+003,5.004318e+001
3.673942e+003,4.132627e+001
3.675871e+003,4.077155e+001
3.677799e+003,4.775087e+001
3.679728e+003,4.121642e+001
3.681656e+003,3.124538e+001
3.683584e+003,2.918466e+001
3.685513e+003,3.022716e+001
3.687441e+003,3.356668e+001
3.689370e+003,3.193982e+001
3.691298e+003,2.599397e+001
3.693227e+003,3.720905e+001
3.695155e+003,5.046471e+001
3.697084e+003,4.308915e+001
3.699012e+003,3.516638e+001
3.700941e+003,3.428388e+001
3.702869e+003,3.795324e+001
3.704798e+003,4.532667e+001
3.706726e+003,5.004374e+001
3.708655e+003,4.927227e+001
3.710583e+003,3.431400e+001
3.712511e+003,2.337829e+001
3.714440e+003,2.455752e+001
3.716368e+003,3.072864e+001
3.718297e+003,4.031898e+001
3.720225e+003,4.202420e+001
3.722154e+003,3.835734e+001
3.724082e+003,2.935015e+001
3.726011e+003,2.491805e+001
3.727939e+003,3.148695e+001
3.729868e+003,3.147180e+001
3.731796e+003,2.499156e+001
3.733725e+003,3.362206e+001
3.735653e+003,4.602160e+001
3.737582e+003,4.768325e+001
3.739510e+003,4.638750e+001
3.741438e+003,4.495374e+001
3.743367e+003,4.067030e+001
3.745295e+003,3.450382e+001
3.747224e+003,3.515901e+001
3.749152e+003,3.801507e+001
3.751081e+003,3.855093e+001
3.753009e+003,3.737233e+001
3.754938e+003,3.382434e+001
3.756866e+003,3.518573e+001
3.758795e+003,3.962605e+001
3.760723e+003,3.469460e+001
3.762652e+003,3.015376e+001
3.764580e+003,3.783939e+001
3.766509e+003,4.094229e+001
3.768437e+003,3.501447e+001
3.770365e+003,3.107416e+001
3.772294e+003,2.969722e+001
3.774222e+003,3.114626e+001
3.776151e+003,3.477140e+001
3.778079e+003,4.292650e+001
3.780008e+003,4.411221e+001
3.781936e+003,3.662292e+001
3.783865e+003,3.749757e+001
3.785793e+003,4.263503e+001
3.787722e+003,4.474471e+001
3.789650e+003,4.353965e+001
3.791579e+003,3.616776e+001
3.793507e+003,3.604496e+001
3.795436e+003,4.311683e+001
3.797364e+003,4.273987e+001
3.799292e+003,3.921995e+001
3.801221e+003,3.791968e+001
3.803149e+003,3.636478e+001
3.805078e+003,3.337011e+001
3.807006e+003,3.094264e+001
3.808935e+003,3.009329e+001
3.810863e+003,3.626303e+001
3.812792e+003,4.330904e+001
3.814720e+003,4.676057e+001
3.816649e+003,4.722810e+001
3.818577e+003,4.452026e+001
3.820506e+003,3.817945e+001
3.822434e+003,2.993271e+001
3.824363e+003,1.902572e+001
3.826291e+003,1.734113e+001
3.828219e+003,3.466513e+001
3.830148e+003,4.218962e+001
3.832076e+003,3.756548e+001
3.834005e+003,3.382530e+001
3.835933e+003,3.245055e+001
3.837862e+003,3.835366e+001
3.839790e+003,3.854095e+001
3.841719e+003,2.902240e+001
3.843647e+003,3.250413e+001
3.845576e+003,4.279551e+001
3.847504e+003,3.573048e+001
3.849433e+003,2.803082e+001
3.851361e+003,3.220443e+001
3.853290e+003,3.414724e+001
3.855218e+003,3.310719e+001
3.857146e+003,3.682117e+001
3.859075e+003,4.178254e+001
3.861003e+003,4.369990e+001
3.862932e+003,4.339293e+001
3.864860e+003,4.077047e+001
3.866789e+003,3.668671e+001
3.868717e+003,3.241916e+001
3.870646e+003,3.194868e+001
3.872574e+003,3.225583e+001
3.874503e+003,3.039512e+001
3.876431e+003,3.280230e+001
3.878360e+003,3.977039e+001
3.880288e+003,4.911486e+001
3.882217e+003,5.503445e+001
3.884145e+003,4.588417e+001
3.886073e+003,3.906679e+001
3.888002e+003,3.989315e+001
3.889930e+003,4.053314e+001
3.891859e+003,4.008725e+001
3.893787e+003,3.532594e+001
3.895716e+003,3.216171e+001
3.897644e+003,3.345886e+001
3.899573e+003,3.957791e+001
3.901501e+003,4.900348e+001
3.903430e+003,4.903596e+001
3.905358e+003,4.508174e+001
3.907287e+003,3.933116e+001
3.909215e+003,4.007911e+001
3.911144e+003,4.825496e+001
3.913072e+003,4.835771e+001
3.915000e+003,4.333577e+001
3.916929e+003,3.658835e+001
3.918857e+003,3.289838e+001
3.920786e+003,3.563227e+001
3.922714e+003,3.518941e+001
3.924643e+003,3.341487e+001
3.926571e+003,3.895213e+001
3.928500e+003,4.331222e+001
3.930428e+003,4.098759e+001
3.932357e+003,3.734866e+001
3.934285e+003,3.372377e+001
3.936214e+003,3.859875e+001
3.938142e+003,4.213401e+001
3.940071e+003,2.949806e+001
3.941999e+003,2.560382e+001
3.943927e+003,3.697673e+001
3.945856e+003,3.647636e+001
3.947784e+003,3.180842e+001
3.949713e+003,3.424157e+001
3.951641e+003,3.835959e+001
3.953570e+003,4.281123e+001
3.955498e+003,4.301571e+001
3.957427e+003,4.031897e+001
3.959355e+003,3.646561e+001
3.961284e+003,3.516006e+001
3.963212e+003,3.957533e+001
3.965141e+003,4.372660e+001
3.967069e+003,4.649278e+001
3.968998e+003,4.461328e+001
3.970926e+003,4.104364e+001
3.972854e+003,3.782426e+001
3.974783e+003,3.262408e+001
3.976711e+003,2.650376e+001
3.978640e+003,3.063296e+001
3.980568e+003,3.686819e+001
3.982497e+003,3.686529e+001
3.984425e+003,3.980891e+001
3.986354e+003,4.764475e+001
3.988282e+003,4.122078e+001
3.990211e+003,3.159847e+001
3.992139e+003,3.368367e+001
3.994068e+003,3.559831e+001
3.995996e+003,3.465590e+001
3.997925e+003,2.817800e+001
3.999853e+003,2.366762e+001
4.001781e+003,4.062546e+001
4.003710e+003,4.599952e+001
4.005638e+003,2.837470e+001
4.007567e+003,2.175107e+001
4.009495e+003,2.272086e+001
4.011424e+003,2.028443e+001
4.013352e+003,2.215424e+001
4.015281e+003,3.558097e+001
4.017209e+003,4.333553e+001
4.019138e+003,4.432609e+001
4.021066e+003,3.239521e+001
4.022995e+003,2.534248e+001
4.024923e+003,3.246638e+001
4.026852e+003,3.189849e+001
4.028780e+003,2.610378e+001
4.030708e+003,2.899999e+001
4.032637e+003,3.516006e+001
4.034565e+003,4.365616e+001
4.036494e+003,4.240895e+001
4.038422e+003,3.495638e+001
4.040351e+003,4.363368e+001
4.042279e+003,4.880972e+001
4.044208e+003,3.030845e+001
4.046136e+003,2.900807e+001
4.048065e+003,4.109913e+001
4.049993e+003,4.323911e+001
4.051922e+003,3.798109e+001
4.053850e+003,2.308546e+001
4.055779e+003,2.569758e+001
4.057707e+003,4.182118e+001
4.059635e+003,3.915189e+001
4.061564e+003,3.217071e+001
4.063492e+003,3.007450e+001
4.065421e+003,2.492247e+001
4.067349e+003,1.857820e+001
4.069278e+003,3.024232e+001
4.071206e+003,4.280186e+001
4.073135e+003,4.399953e+001
4.075063e+003,4.214799e+001
4.076992e+003,3.813000e+001
4.078920e+003,3.119735e+001
4.080849e+003,2.829383e+001
4.082777e+003,3.678171e+001
4.084706e+003,3.733759e+001
4.086634e+003,3.166621e+001
4.088563e+003,3.268559e+001
4.090491e+003,3.543052e+001
4.092419e+003,3.860891e+001
4.094348e+003,2.868512e+001
4.096276e+003,1.231299e+001
4.098205e+003,2.471802e+001
4.100133e+003,3.714719e+001
4.102062e+003,3.321384e+001
4.103990e+003,2.760452e+001
4.105919e+003,2.378937e+001
4.107847e+003,3.332234e+001
4.109776e+003,4.029614e+001
4.111704e+003,3.372876e+001
4.113633e+003,2.919090e+001
4.115561e+003,2.758584e+001
4.117490e+003,3.099512e+001
4.119418e+003,3.557021e+001
4.121347e+003,4.042584e+001
4.123275e+003,3.706247e+001
4.125204e+003,2.978913e+001
4.127132e+003,2.699242e+001
4.129061e+003,2.560046e+001
4.130989e+003,2.458726e+001
4.132917e+003,2.726110e+001
4.134846e+003,3.081294e+001
4.136774e+003,3.044195e+001
4.138703e+003,3.042839e+001
4.140631e+003,3.184846e+001
4.142560e+003,3.365071e+001
4.144488e+003,3.371393e+001
4.146417e+003,2.714429e+001
4.148345e+003,2.518225e+001
4.150273e+003,2.933897e+001
4.152202e+003,2.714954e+001
4.154130e+003,2.458761e+001
4.156059e+003,2.909651e+001
4.157987e+003,2.785440e+001
4.159916e+003,2.225567e+001
4.161844e+003,3.057187e+001
4.163773e+003,3.775889e+001
4.165701e+003,3.213068e+001
4.167630e+003,2.715576e+001
4.169558e+003,2.442189e+001
4.171487e+003,2.643217e+001
4.173415e+003,2.951416e+001
4.175344e+003,3.257055e+001
4.177272e+003,2.698427e+001
4.179201e+003,2.065447e+001
4.181129e+003,3.416832e+001
4.183058e+003,3.966029e+001
4.184986e+003,3.079209e+001
4.186915e+003,2.813427e+001
4.188843e+003,2.941954e+001
4.190771e+003,3.280484e+001
4.192700e+003,3.137069e+001
4.194628e+003,2.497856e+001
4.196557e+003,2.650321e+001
4.198485e+003,3.038732e+001
4.200414e+003,3.382061e+001
4.202342e+003,3.003248e+001
4.204271e+003,2.208691e+001
4.206199e+003,2.688993e+001
4.208127e+003,3.241094e+001
4.210056e+003,3.329189e+001
4.211984e+003,2.971370e+001
4.213913e+003,2.558897e+001
4.215841e+003,3.145952e+001
4.217770e+003,3.342402e+001
4.219698e+003,2.681823e+001
4.221627e+003,2.515962e+001
4.223555e+003,2.800179e+001
4.225484e+003,3.996678e+001
4.227412e+003,4.041063e+001
4.229341e+003,3.033685e+001
4.231269e+003,4.031706e+001
4.233198e+003,4.793182e+001
4.235126e+003,3.265040e+001
4.237055e+003,2.808565e+001
4.238983e+003,3.081535e+001
4.240912e+003,2.843451e+001
4.242840e+003,2.916781e+001
4.244769e+003,3.645181e+001
4.246697e+003,4.127252e+001
4.248625e+003,4.178030e+001
4.250554e+003,3.674069e+001
