1.159199e+002,1.013572e+003
1.178484e+002,1.079449e+003
1.197769e+002,1.119136e+003
1.217053e+002,1.130695e+003
1.236338e+002,1.120906e+003
1.255623e+002,1.075238e+003
1.274907e+002,1.016833e+003
1.294192e+002,9.658008e+002
1.313477e+002,9.200129e+002
1.332761e+002,8.850072e+002
1.352046e+002,8.638494e+002
1.371331e+002,8.583631e+002
1.390615e+002,8.570561e+002
1.409900e+002,8.531568e+002
1.429185e+002,8.517532e+002
1.448469e+002,8.657725e+002
1.467754e+002,9.062671e+002
1.487039e+002,9.493963e+002
1.506323e+002,9.937081e+002
1.525608e+002,1.047478e+003
1.544893e+002,1.063283e+003
1.564177e+002,1.030017e+003
1.583462e+002,9.574065e+002
1.602747e+002,8.789525e+002
1.622031e+002,7.865848e+002
1.641316e+002,6.990457e+002
1.660601e+002,6.233647e+002
1.679885e+002,5.543867e+002
1.699170e+002,5.048613e+002
1.718455e+002,4.770988e+002
1.737739e+002,4.716831e+002
1.757024e+002,4.710052e+002
1.776309e+002,4.813470e+002
1.795593e+002,4.922531e+002
1.814878e+002,4.951362e+002
1.834163e+002,4.844499e+002
1.853447e+002,4.715178e+002
1.872732e+002,4.566669e+002
1.892017e+002,4.402408e+002
1.911301e+002,4.265181e+002
1.930586e+002,4.185971e+002
1.949871e+002,4.131360e+002
1.969155e+002,4.058839e+002
1.988440e+002,3.942636e+002
2.007725e+002,3.836094e+002
2.027009e+002,3.753029e+002
2.046294e+002,3.689550e+002
2.065579e+002,3.644539e+002
2.084864e+002,3.612966e+002
2.104148e+002,3.595385e+002
2.123433e+002,3.595081e+002
2.142718e+002,3.612626e+002
2.162002e+002,3.640385e+002
2.181287e+002,3.675107e+002
2.200572e+002,3.720629e+002
2.219856e+002,3.759286e+002
2.239141e+002,3.808639e+002
2.258426e+002,3.849578e+002
2.277710e+002,3.841734e+002
2.296995e+002,3.742012e+002
2.316280e+002,3.643717e+002
2.335564e+002,3.590156e+002
2.354849e+002,3.627336e+002
2.374134e+002,3.653121e+002
2.393418e+002,3.652993e+002
2.412703e+002,3.641042e+002
2.431988e+002,3.647764e+002
2.451272e+002,3.697159e+002
2.470557e+002,3.746760e+002
2.489842e+002,3.769587e+002
2.509126e+002,3.736972e+002
2.528411e+002,3.735079e+002
2.547696e+002,3.821696e+002
2.566980e+002,3.954797e+002
2.586265e+002,4.018419e+002
2.605550e+002,3.938857e+002
2.624834e+002,3.839863e+002
2.644119e+002,3.785539e+002
2.663404e+002,3.783026e+002
2.682688e+002,3.787449e+002
2.701973e+002,3.794277e+002
2.721258e+002,3.800834e+002
2.740542e+002,3.794297e+002
2.759827e+002,3.735390e+002
2.779112e+002,3.689615e+002
2.798396e+002,3.705526e+002
2.817681e+002,3.792869e+002
2.836966e+002,3.865358e+002
2.856250e+002,3.898853e+002
2.875535e+002,3.902332e+002
2.894820e+002,3.907006e+002
2.914104e+002,3.931315e+002
2.933389e+002,3.946650e+002
2.952674e+002,3.936504e+002
2.971958e+002,3.895401e+002
2.991243e+002,3.864893e+002
3.010528e+002,3.844600e+002
3.029813e+002,3.838327e+002
3.049097e+002,3.859069e+002
3.068382e+002,3.941303e+002
3.087667e+002,4.007173e+002
3.106951e+002,4.005234e+002
3.126236e+002,3.891652e+002
3.145521e+002,3.849814e+002
3.164805e+002,3.962318e+002
3.184090e+002,4.147698e+002
3.203375e+002,4.232121e+002
3.222659e+002,4.146506e+002
3.241944e+002,4.064569e+002
3.261229e+002,4.051447e+002
3.280513e+002,4.131801e+002
3.299798e+002,4.228031e+002
3.319083e+002,4.349220e+002
3.338367e+002,4.480353e+002
3.357652e+002,4.608983e+002
3.376937e+002,4.765427e+002
3.396221e+002,4.859999e+002
3.415506e+002,4.858044e+002
3.434791e+002,4.736083e+002
3.454075e+002,4.618169e+002
3.473360e+002,4.484191e+002
3.492645e+002,4.368961e+002
3.511929e+002,4.302892e+002
3.531214e+002,4.321845e+002
3.550499e+002,4.323413e+002
3.569783e+002,4.261816e+002
3.589068e+002,4.140734e+002
3.608353e+002,4.078653e+002
3.627637e+002,4.111158e+002
3.646922e+002,4.176955e+002
3.666207e+002,4.241910e+002
3.685491e+002,4.317160e+002
3.704776e+002,4.366848e+002
3.724061e+002,4.357047e+002
3.743345e+002,4.314887e+002
3.762630e+002,4.334929e+002
3.781915e+002,4.473442e+002
3.801199e+002,4.608949e+002
3.820484e+002,4.688005e+002
3.839769e+002,4.690949e+002
3.859053e+002,4.671492e+002
3.878338e+002,4.596836e+002
3.897623e+002,4.509036e+002
3.916907e+002,4.474447e+002
3.936192e+002,4.514206e+002
3.955477e+002,4.567108e+002
3.974761e+002,4.615103e+002
3.994046e+002,4.659330e+002
4.013331e+002,4.690521e+002
4.032615e+002,4.683454e+002
4.051900e+002,4.683593e+002
4.071185e+002,4.733469e+002
4.090469e+002,4.853448e+002
4.109754e+002,4.967886e+002
4.129039e+002,5.079289e+002
4.148323e+002,5.180323e+002
4.167608e+002,5.218517e+002
4.186893e+002,5.151691e+002
4.206177e+002,5.062319e+002
4.225462e+002,4.976366e+002
4.244747e+002,4.887187e+002
4.264032e+002,4.829990e+002
4.283316e+002,4.818396e+002
4.302601e+002,4.836364e+002
4.321886e+002,4.859398e+002
4.341170e+002,4.873362e+002
4.360455e+002,4.913354e+002
4.379740e+002,5.018875e+002
4.399024e+002,5.182521e+002
4.418309e+002,5.290765e+002
4.437594e+002,5.291930e+002
4.456878e+002,5.265418e+002
4.476163e+002,5.264345e+002
4.495448e+002,5.293016e+002
4.514732e+002,5.322347e+002
4.534017e+002,5.355571e+002
4.553302e+002,5.385264e+002
4.572586e+002,5.390966e+002
4.591871e+002,5.328105e+002
4.611156e+002,5.285466e+002
4.630440e+002,5.309635e+002
4.649725e+002,5.398867e+002
4.669010e+002,5.457482e+002
4.688294e+002,5.441553e+002
4.707579e+002,5.407158e+002
4.726864e+002,5.397532e+002
4.746148e+002,5.418245e+002
4.765433e+002,5.457388e+002
4.784718e+002,5.516345e+002
4.804002e+002,5.593340e+002
4.823287e+002,5.682643e+002
4.842572e+002,5.805661e+002
4.861856e+002,5.913261e+002
4.881141e+002,5.987683e+002
4.900426e+002,6.023987e+002
4.919710e+002,6.043191e+002
4.938995e+002,6.029067e+002
4.958280e+002,6.011060e+002
4.977564e+002,6.022675e+002
4.996849e+002,6.085201e+002
5.016134e+002,6.116116e+002
5.035418e+002,6.076492e+002
5.054703e+002,5.985327e+002
5.073988e+002,5.922908e+002
5.093272e+002,5.873867e+002
5.112557e+002,5.859988e+002
5.131842e+002,5.900291e+002
5.151127e+002,5.989513e+002
5.170411e+002,6.086227e+002
5.189696e+002,6.226474e+002
5.208981e+002,6.347500e+002
5.228265e+002,6.392015e+002
5.247550e+002,6.334351e+002
5.266835e+002,6.258555e+002
5.286119e+002,6.139112e+002
5.305404e+002,6.015395e+002
5.324689e+002,5.955551e+002
5.343973e+002,5.997711e+002
5.363258e+002,6.069941e+002
5.382543e+002,6.178525e+002
5.401827e+002,6.325399e+002
5.421112e+002,6.385135e+002
5.440397e+002,6.270804e+002
5.459681e+002,6.130181e+002
5.478966e+002,6.048265e+002
5.498251e+002,6.035822e+002
5.517535e+002,6.053366e+002
5.536820e+002,6.107372e+002
5.556105e+002,6.185162e+002
5.575389e+002,6.267971e+002
5.594674e+002,6.357856e+002
5.613959e+002,6.456702e+002
5.633243e+002,6.598317e+002
5.652528e+002,6.763321e+002
5.671813e+002,6.849362e+002
5.691097e+002,6.751187e+002
5.710382e+002,6.657510e+002
5.729667e+002,6.619837e+002
5.748951e+002,6.636247e+002
5.768236e+002,6.754883e+002
5.787521e+002,7.095346e+002
5.806805e+002,7.464258e+002
5.826090e+002,7.726678e+002
5.845375e+002,7.898419e+002
5.864659e+002,7.902319e+002
5.883944e+002,7.638854e+002
5.903229e+002,7.228099e+002
5.922513e+002,6.899426e+002
5.941798e+002,6.663646e+002
5.961083e+002,6.488013e+002
5.980367e+002,6.375792e+002
5.999652e+002,6.321647e+002
6.018937e+002,6.276373e+002
6.038221e+002,6.201107e+002
6.057506e+002,6.166381e+002
6.076791e+002,6.214915e+002
6.096075e+002,6.344846e+002
6.115360e+002,6.487356e+002
6.134645e+002,6.666972e+002
6.153929e+002,6.827485e+002
6.173214e+002,6.938307e+002
6.192499e+002,7.031495e+002
6.211783e+002,7.004818e+002
6.231068e+002,6.768129e+002
6.250353e+002,6.444971e+002
6.269637e+002,6.221031e+002
6.288922e+002,6.106691e+002
6.308207e+002,6.054783e+002
6.327491e+002,6.072537e+002
6.346776e+002,6.142214e+002
6.366061e+002,6.198929e+002
6.385345e+002,6.221021e+002
6.404630e+002,6.243896e+002
6.423915e+002,6.286321e+002
6.443199e+002,6.342147e+002
6.462484e+002,6.368908e+002
6.481769e+002,6.342878e+002
6.501053e+002,6.308837e+002
6.520338e+002,6.290872e+002
6.539623e+002,6.293477e+002
6.558907e+002,6.309024e+002
6.578192e+002,6.334064e+002
6.597477e+002,6.373172e+002
6.616761e+002,6.437310e+002
6.636046e+002,6.532443e+002
6.655331e+002,6.612209e+002
6.674615e+002,6.659106e+002
6.693900e+002,6.685221e+002
6.713185e+002,6.704417e+002
6.732469e+002,6.728292e+002
6.751754e+002,6.733851e+002
6.771039e+002,6.694395e+002
6.790323e+002,6.636749e+002
6.809608e+002,6.629262e+002
6.828893e+002,6.695530e+002
6.848177e+002,6.770213e+002
6.867462e+002,6.839470e+002
6.886747e+002,6.900773e+002
6.906031e+002,6.917175e+002
6.925316e+002,6.792087e+002
6.944601e+002,6.713230e+002
6.963885e+002,6.817546e+002
6.983170e+002,7.089928e+002
7.002455e+002,7.240994e+002
7.021740e+002,7.171628e+002
7.041024e+002,7.033934e+002
7.060309e+002,6.905901e+002
7.079594e+002,6.774713e+002
7.098878e+002,6.693809e+002
7.118163e+002,6.680577e+002
7.137448e+002,6.699638e+002
7.156732e+002,6.725449e+002
7.176017e+002,6.759060e+002
7.195302e+002,6.796891e+002
7.214586e+002,6.788889e+002
7.233871e+002,6.817257e+002
7.253156e+002,6.973931e+002
7.272440e+002,7.350661e+002
7.291725e+002,7.712514e+002
7.311010e+002,8.039897e+002
7.330294e+002,8.337112e+002
7.349579e+002,8.561710e+002
7.368864e+002,8.563683e+002
7.388149e+002,8.835928e+002
7.407433e+002,9.842938e+002
7.426718e+002,1.121540e+003
7.446003e+002,1.213222e+003
7.465287e+002,1.250428e+003
7.484572e+002,1.246058e+003
7.503857e+002,1.180907e+003
7.523141e+002,1.070209e+003
7.542426e+002,9.796966e+002
7.561711e+002,9.107701e+002
7.580995e+002,8.590840e+002
7.600280e+002,8.268694e+002
7.619565e+002,8.111722e+002
7.638849e+002,7.998122e+002
7.658134e+002,7.958687e+002
7.677419e+002,7.922290e+002
7.696703e+002,7.874733e+002
7.715988e+002,7.812113e+002
7.735273e+002,7.714882e+002
7.754557e+002,7.541588e+002
7.773842e+002,7.379090e+002
7.793127e+002,7.276931e+002
7.812411e+002,7.231998e+002
7.831696e+002,7.188340e+002
7.850981e+002,7.105790e+002
7.870266e+002,7.058882e+002
7.889550e+002,7.099582e+002
7.908835e+002,7.250565e+002
7.928120e+002,7.358420e+002
7.947404e+002,7.395246e+002
7.966689e+002,7.412844e+002
7.985974e+002,7.443353e+002
8.005258e+002,7.486029e+002
8.024543e+002,7.502691e+002
8.043828e+002,7.438688e+002
8.063112e+002,7.377784e+002
8.082397e+002,7.372643e+002
8.101682e+002,7.448361e+002
8.120966e+002,7.490686e+002
8.140251e+002,7.505880e+002
8.159536e+002,7.484451e+002
8.178820e+002,7.381092e+002
8.198105e+002,7.191504e+002
8.217390e+002,7.125107e+002
8.236674e+002,7.314146e+002
8.255959e+002,7.579946e+002
8.275244e+002,7.835850e+002
8.294528e+002,8.106190e+002
8.313813e+002,8.295627e+002
8.333098e+002,8.375620e+002
8.352382e+002,8.396022e+002
8.371667e+002,8.366197e+002
8.390952e+002,8.280552e+002
8.410236e+002,8.252524e+002
8.429521e+002,8.330103e+002
8.448806e+002,8.456468e+002
8.468090e+002,8.592841e+002
8.487375e+002,8.724521e+002
8.506660e+002,8.909603e+002
8.525944e+002,9.101019e+002
8.545229e+002,9.372659e+002
8.564514e+002,9.809484e+002
8.583798e+002,1.041233e+003
8.603083e+002,1.105492e+003
8.622368e+002,1.200858e+003
8.641652e+002,1.272252e+003
8.660937e+002,1.281793e+003
8.680222e+002,1.218019e+003
8.699506e+002,1.143310e+003
8.718791e+002,1.044455e+003
8.738076e+002,9.506733e+002
8.757360e+002,8.812180e+002
8.776645e+002,8.381558e+002
8.795930e+002,8.065906e+002
8.815214e+002,7.907256e+002
8.834499e+002,7.824911e+002
8.853784e+002,7.782025e+002
8.873068e+002,7.779009e+002
8.892353e+002,7.776511e+002
8.911638e+002,7.772152e+002
8.930922e+002,7.760046e+002
8.950207e+002,7.723158e+002
8.969492e+002,7.651721e+002
8.988776e+002,7.623890e+002
9.008061e+002,7.679229e+002
9.027346e+002,7.736157e+002
9.046630e+002,7.749989e+002
9.065915e+002,7.732770e+002
9.085200e+002,7.731241e+002
9.104484e+002,7.757359e+002
9.123769e+002,7.803842e+002
9.143054e+002,7.897225e+002
9.162338e+002,8.035183e+002
9.181623e+002,8.090186e+002
9.200908e+002,7.951496e+002
9.220192e+002,7.859083e+002
9.239477e+002,7.938095e+002
9.258762e+002,8.126859e+002
9.278046e+002,8.209466e+002
9.297331e+002,8.123145e+002
9.316616e+002,8.017594e+002
9.335900e+002,7.922029e+002
9.355185e+002,7.846402e+002
9.374470e+002,7.828084e+002
9.393754e+002,7.926898e+002
9.413039e+002,8.010367e+002
9.432324e+002,8.046112e+002
9.451608e+002,8.060572e+002
9.470893e+002,8.112263e+002
9.490178e+002,8.228094e+002
9.509462e+002,8.312166e+002
9.528747e+002,8.326822e+002
9.548032e+002,8.305475e+002
9.567316e+002,8.287193e+002
9.586601e+002,8.279372e+002
9.605886e+002,8.248079e+002
9.625170e+002,8.140756e+002
9.644455e+002,8.037869e+002
9.663740e+002,8.012059e+002
9.683024e+002,8.091667e+002
9.702309e+002,8.185316e+002
9.721594e+002,8.370936e+002
9.740878e+002,8.508458e+002
9.760163e+002,8.429310e+002
9.779448e+002,8.156591e+002
9.798733e+002,8.042122e+002
9.818018e+002,8.253680e+002
9.837302e+002,8.500695e+002
9.856587e+002,8.597514e+002
9.875872e+002,8.537277e+002
9.895156e+002,8.684318e+002
9.914441e+002,8.915965e+002
9.933726e+002,9.477101e+002
9.953010e+002,1.086083e+003
9.972295e+002,1.269107e+003
9.991580e+002,1.359646e+003
1.001086e+003,1.335663e+003
1.003015e+003,1.270925e+003
1.004943e+003,1.156373e+003
1.006872e+003,1.025842e+003
1.008800e+003,9.336389e+002
1.010729e+003,8.904878e+002
1.012657e+003,8.617092e+002
1.014586e+003,8.471126e+002
1.016514e+003,8.386149e+002
1.018443e+003,8.265630e+002
1.020371e+003,8.049286e+002
1.022300e+003,7.955677e+002
1.024228e+003,8.158244e+002
1.026156e+003,8.357032e+002
1.028085e+003,8.294247e+002
1.030013e+003,8.002067e+002
1.031942e+003,7.785757e+002
1.033870e+003,7.667590e+002
1.035799e+003,7.662264e+002
1.037727e+003,7.855693e+002
1.039656e+003,8.216848e+002
1.041584e+003,8.356481e+002
1.043513e+003,7.939738e+002
1.045441e+003,7.690968e+002
1.047370e+003,7.902650e+002
1.049298e+003,8.371467e+002
1.051227e+003,8.604984e+002
1.053155e+003,8.517402e+002
1.055083e+003,8.475135e+002
1.057012e+003,8.606951e+002
1.058940e+003,8.805682e+002
1.060869e+003,8.961667e+002
1.062797e+003,9.062672e+002
1.064726e+003,9.188373e+002
1.066654e+003,9.474630e+002
1.068583e+003,9.672701e+002
1.070511e+003,9.616788e+002
1.072440e+003,9.280955e+002
1.074368e+003,8.949702e+002
1.076297e+003,8.489172e+002
1.078225e+003,8.186432e+002
1.080154e+003,8.222045e+002
1.082082e+003,8.500154e+002
1.084010e+003,8.722014e+002
1.085939e+003,8.865002e+002
1.087867e+003,9.021782e+002
1.089796e+003,9.303176e+002
1.091724e+003,9.571425e+002
1.093653e+003,9.631146e+002
1.095581e+003,9.384602e+002
1.097510e+003,9.227275e+002
1.099438e+003,9.212592e+002
1.101367e+003,9.280867e+002
1.103295e+003,9.413938e+002
1.105224e+003,9.620599e+002
1.107152e+003,9.825135e+002
1.109081e+003,1.021206e+003
1.111009e+003,1.040859e+003
1.112938e+003,1.017255e+003
1.114866e+003,9.657234e+002
1.116794e+003,9.182661e+002
1.118723e+003,8.691428e+002
1.120651e+003,8.415460e+002
1.122580e+003,8.640351e+002
1.124508e+003,8.992582e+002
1.126437e+003,9.063655e+002
1.128365e+003,8.701638e+002
1.130294e+003,8.545154e+002
1.132222e+003,8.757870e+002
1.134151e+003,9.045520e+002
1.136079e+003,9.273149e+002
1.138008e+003,9.441218e+002
1.139936e+003,9.579616e+002
1.141865e+003,9.732740e+002
1.143793e+003,9.783517e+002
1.145721e+003,9.550461e+002
1.147650e+003,9.235812e+002
1.149578e+003,9.191927e+002
1.151507e+003,9.511516e+002
1.153435e+003,9.688365e+002
1.155364e+003,9.495046e+002
1.157292e+003,9.207405e+002
1.159221e+003,8.989758e+002
1.161149e+003,8.853499e+002
1.163078e+003,8.733027e+002
1.165006e+003,8.610113e+002
1.166935e+003,8.528254e+002
1.168863e+003,8.495596e+002
1.170792e+003,8.514800e+002
1.172720e+003,8.614745e+002
1.174648e+003,8.864293e+002
1.176577e+003,9.001725e+002
1.178505e+003,8.849009e+002
1.180434e+003,8.647885e+002
1.182362e+003,8.616049e+002
1.184291e+003,8.745359e+002
1.186219e+003,8.841064e+002
1.188148e+003,8.797800e+002
1.190076e+003,8.831401e+002
1.192005e+003,9.112269e+002
1.193933e+003,9.541401e+002
1.195862e+003,9.782236e+002
1.197790e+003,9.711299e+002
1.199719e+003,9.642682e+002
1.201647e+003,9.641549e+002
1.203575e+003,9.627028e+002
1.205504e+003,9.477429e+002
1.207432e+003,9.153932e+002
1.209361e+003,9.027018e+002
1.211289e+003,9.193613e+002
1.213218e+003,9.448110e+002
1.215146e+003,9.712007e+002
1.217075e+003,1.001014e+003
1.219003e+003,1.043648e+003
1.220932e+003,1.108618e+003
1.222860e+003,1.153079e+003
1.224789e+003,1.163575e+003
1.226717e+003,1.149797e+003
1.228646e+003,1.107628e+003
1.230574e+003,1.031196e+003
1.232502e+003,9.824090e+002
1.234431e+003,9.818212e+002
1.236359e+003,9.865514e+002
1.238288e+003,9.870768e+002
1.240216e+003,9.852355e+002
1.242145e+003,9.855187e+002
1.244073e+003,9.915153e+002
1.246002e+003,9.915508e+002
1.247930e+003,9.756143e+002
1.249859e+003,9.621650e+002
1.251787e+003,9.711240e+002
1.253716e+003,9.951039e+002
1.255644e+003,9.978699e+002
1.257573e+003,9.646517e+002
1.259501e+003,9.378304e+002
1.261429e+003,9.325254e+002
1.263358e+003,9.419662e+002
1.265286e+003,9.640998e+002
1.267215e+003,1.002754e+003
1.269143e+003,1.027469e+003
1.271072e+003,1.025261e+003
1.273000e+003,1.017554e+003
1.274929e+003,1.009857e+003
1.276857e+003,1.002779e+003
1.278786e+003,9.981432e+002
1.280714e+003,9.955955e+002
1.282643e+003,9.967921e+002
1.284571e+003,1.011923e+003
1.286500e+003,1.023203e+003
1.288428e+003,1.010945e+003
1.290356e+003,9.777487e+002
1.292285e+003,9.591889e+002
1.294213e+003,9.584207e+002
1.296142e+003,9.675474e+002
1.298070e+003,9.886506e+002
1.299999e+003,1.015488e+003
1.301927e+003,1.043415e+003
1.303856e+003,1.072836e+003
1.305784e+003,1.092101e+003
1.307713e+003,1.092506e+003
1.309641e+003,1.091680e+003
1.311570e+003,1.096763e+003
1.313498e+003,1.106538e+003
1.315427e+003,1.116826e+003
1.317355e+003,1.123355e+003
1.319283e+003,1.140741e+003
1.321212e+003,1.170578e+003
1.323140e+003,1.210386e+003
1.325069e+003,1.268034e+003
1.326997e+003,1.339741e+003
1.328926e+003,1.383958e+003
1.330854e+003,1.391697e+003
1.332783e+003,1.388918e+003
1.334711e+003,1.369739e+003
1.336640e+003,1.348656e+003
1.338568e+003,1.324850e+003
1.340497e+003,1.302214e+003
1.342425e+003,1.348503e+003
1.344354e+003,1.516371e+003
1.346282e+003,1.664494e+003
1.348210e+003,1.764234e+003
1.350139e+003,1.796941e+003
1.352068e+003,1.722614e+003
1.353996e+003,1.533655e+003
1.355924e+003,1.357646e+003
1.357853e+003,1.193283e+003
1.359781e+003,1.072720e+003
1.361710e+003,1.023152e+003
1.363638e+003,1.019640e+003
1.365567e+003,1.013868e+003
1.367495e+003,1.004949e+003
1.369424e+003,9.966164e+002
1.371352e+003,9.851203e+002
1.373281e+003,9.791243e+002
1.375209e+003,9.881546e+002
1.377138e+003,1.006300e+003
1.379066e+003,1.012936e+003
1.380995e+003,9.979849e+002
1.382923e+003,9.910227e+002
1.384851e+003,1.001270e+003
1.386780e+003,1.012208e+003
1.388708e+003,1.010894e+003
1.390637e+003,1.000947e+003
1.392565e+003,9.984145e+002
1.394494e+003,1.004882e+003
1.396422e+003,1.014259e+003
1.398351e+003,1.027224e+003
1.400279e+003,1.041161e+003
1.402208e+003,1.047625e+003
1.404136e+003,1.052577e+003
1.406065e+003,1.079844e+003
1.407993e+003,1.134237e+003
1.409922e+003,1.200005e+003
1.411850e+003,1.301867e+003
1.413778e+003,1.386742e+003
1.415707e+003,1.418184e+003
1.417635e+003,1.399122e+003
1.419564e+003,1.353637e+003
1.421492e+003,1.262344e+003
1.423421e+003,1.184280e+003
1.425349e+003,1.127739e+003
1.427278e+003,1.089215e+003
1.429206e+003,1.068438e+003
1.431135e+003,1.064888e+003
1.433063e+003,1.066957e+003
1.434992e+003,1.076268e+003
1.436920e+003,1.088243e+003
1.438849e+003,1.108103e+003
1.440777e+003,1.126085e+003
1.442705e+003,1.131822e+003
1.444634e+003,1.126512e+003
1.446562e+003,1.129289e+003
1.448491e+003,1.152591e+003
1.450419e+003,1.162783e+003
1.452348e+003,1.147352e+003
1.454276e+003,1.121932e+003
1.456205e+003,1.095429e+003
1.458133e+003,1.068791e+003
1.460062e+003,1.048052e+003
1.461990e+003,1.030858e+003
1.463919e+003,1.026062e+003
1.465847e+003,1.044385e+003
1.467776e+003,1.069115e+003
1.469704e+003,1.087666e+003
1.471632e+003,1.102705e+003
1.473561e+003,1.126622e+003
1.475489e+003,1.167355e+003
1.477418e+003,1.190643e+003
1.479346e+003,1.178074e+003
1.481275e+003,1.153801e+003
1.483203e+003,1.128590e+003
1.485132e+003,1.103747e+003
1.487060e+003,1.085526e+003
1.488989e+003,1.075257e+003
1.490917e+003,1.067385e+003
1.492846e+003,1.061051e+003
1.494774e+003,1.057426e+003
1.496703e+003,1.058739e+003
1.498631e+003,1.063549e+003
1.500559e+003,1.066735e+003
1.502488e+003,1.066575e+003
1.504416e+003,1.069897e+003
1.506345e+003,1.083886e+003
1.508273e+003,1.093021e+003
1.510202e+003,1.088261e+003
1.512130e+003,1.075326e+003
1.514059e+003,1.064474e+003
1.515987e+003,1.054538e+003
1.517916e+003,1.051599e+003
1.519844e+003,1.061134e+003
1.521773e+003,1.070994e+003
1.523701e+003,1.076146e+003
1.525630e+003,1.080360e+003
1.527558e+003,1.088145e+003
1.529486e+003,1.099315e+003
1.531415e+003,1.112311e+003
1.533343e+003,1.125299e+003
1.535272e+003,1.141291e+003
1.537200e+003,1.148228e+003
1.539129e+003,1.168238e+003
1.541057e+003,1.230292e+003
1.542986e+003,1.329142e+003
1.544914e+003,1.416967e+003
1.546843e+003,1.504602e+003
1.548771e+003,1.556641e+003
1.550700e+003,1.558676e+003
1.552628e+003,1.530509e+003
1.554557e+003,1.463962e+003
1.556485e+003,1.378113e+003
1.558413e+003,1.319182e+003
1.560342e+003,1.285729e+003
1.562270e+003,1.290257e+003
1.564199e+003,1.361978e+003
1.566127e+003,1.433185e+003
1.568056e+003,1.490645e+003
1.569984e+003,1.517424e+003
1.571913e+003,1.481291e+003
1.573841e+003,1.385642e+003
1.575770e+003,1.305901e+003
1.577698e+003,1.250757e+003
1.579627e+003,1.211254e+003
1.581555e+003,1.190998e+003
1.583484e+003,1.179525e+003
1.585412e+003,1.169893e+003
1.587340e+003,1.161721e+003
1.589269e+003,1.152635e+003
1.591197e+003,1.141007e+003
1.593126e+003,1.134821e+003
1.595054e+003,1.137626e+003
1.596983e+003,1.144046e+003
1.598911e+003,1.148678e+003
1.600840e+003,1.155345e+003
1.602768e+003,1.174837e+003
1.604697e+003,1.208544e+003
1.606625e+003,1.232684e+003
1.608554e+003,1.246011e+003
1.610482e+003,1.246868e+003
1.612411e+003,1.229197e+003
1.614339e+003,1.204484e+003
1.616267e+003,1.181256e+003
1.618196e+003,1.159898e+003
1.620124e+003,1.140426e+003
1.622053e+003,1.120315e+003
1.623981e+003,1.110116e+003
1.625910e+003,1.118217e+003
1.627838e+003,1.129137e+003
1.629767e+003,1.136576e+003
1.631695e+003,1.140849e+003
1.633624e+003,1.142881e+003
1.635552e+003,1.142423e+003
1.637481e+003,1.139461e+003
1.639409e+003,1.132333e+003
1.641338e+003,1.126069e+003
1.643266e+003,1.121706e+003
1.645194e+003,1.119635e+003
1.647123e+003,1.121927e+003
1.649051e+003,1.127185e+003
1.650980e+003,1.125722e+003
1.652908e+003,1.110360e+003
1.654837e+003,1.107714e+003
1.656765e+003,1.133299e+003
1.658694e+003,1.155967e+003
1.660622e+003,1.165638e+003
1.662551e+003,1.166622e+003
1.664479e+003,1.163856e+003
1.666408e+003,1.157866e+003
1.668336e+003,1.149771e+003
1.670265e+003,1.133661e+003
1.672193e+003,1.128951e+003
1.674121e+003,1.149717e+003
1.676050e+003,1.169630e+003
1.677978e+003,1.172600e+003
1.679907e+003,1.164637e+003
1.681835e+003,1.156057e+003
1.683764e+003,1.143025e+003
1.685692e+003,1.146028e+003
1.687621e+003,1.184762e+003
1.689549e+003,1.208688e+003
1.691478e+003,1.196987e+003
1.693406e+003,1.178990e+003
1.695335e+003,1.176843e+003
1.697263e+003,1.185835e+003
1.699192e+003,1.188295e+003
1.701120e+003,1.180681e+003
1.703048e+003,1.180000e+003
1.704977e+003,1.195162e+003
1.706905e+003,1.204825e+003
1.708834e+003,1.198990e+003
1.710762e+003,1.188464e+003
1.712691e+003,1.180703e+003
1.714619e+003,1.176267e+003
1.716548e+003,1.179740e+003
1.718476e+003,1.197797e+003
1.720405e+003,1.203923e+003
1.722333e+003,1.181516e+003
1.724262e+003,1.167323e+003
1.726190e+003,1.182716e+003
1.728119e+003,1.202151e+003
1.730047e+003,1.196928e+003
1.731975e+003,1.171204e+003
1.733904e+003,1.159473e+003
1.735832e+003,1.165087e+003
1.737761e+003,1.173254e+003
1.739689e+003,1.185027e+003
1.741618e+003,1.195832e+003
1.743546e+003,1.207345e+003
1.745475e+003,1.214682e+003
1.747403e+003,1.209970e+003
1.749332e+003,1.195101e+003
1.751260e+003,1.186333e+003
1.753189e+003,1.184650e+003
1.755117e+003,1.184715e+003
1.757046e+003,1.185375e+003
1.758974e+003,1.189621e+003
1.760902e+003,1.206071e+003
1.762831e+003,1.221206e+003
1.764759e+003,1.218574e+003
1.766688e+003,1.203394e+003
1.768616e+003,1.199497e+003
1.770545e+003,1.208300e+003
1.772473e+003,1.219009e+003
1.774402e+003,1.231363e+003
1.776330e+003,1.241104e+003
1.778259e+003,1.243158e+003
1.780187e+003,1.244725e+003
1.782116e+003,1.255653e+003
1.784044e+003,1.270341e+003
1.785973e+003,1.270226e+003
1.787901e+003,1.254003e+003
1.789829e+003,1.245648e+003
1.791758e+003,1.250932e+003
1.793686e+003,1.258786e+003
1.795615e+003,1.266488e+003
1.797543e+003,1.274380e+003
1.799472e+003,1.285669e+003
1.801400e+003,1.296066e+003
1.803329e+003,1.296070e+003
1.805257e+003,1.285829e+003
1.807186e+003,1.276557e+003
1.809114e+003,1.268208e+003
1.811043e+003,1.263531e+003
1.812971e+003,1.267645e+003
1.814900e+003,1.270387e+003
1.816828e+003,1.264115e+003
1.818756e+003,1.254483e+003
1.820685e+003,1.249589e+003
1.822613e+003,1.248826e+003
1.824542e+003,1.246352e+003
1.826470e+003,1.239451e+003
1.828399e+003,1.239501e+003
1.830327e+003,1.255908e+003
1.832256e+003,1.269299e+003
1.834184e+003,1.272989e+003
1.836113e+003,1.270693e+003
1.838041e+003,1.262360e+003
1.839970e+003,1.251503e+003
1.841898e+003,1.251206e+003
1.843827e+003,1.266161e+003
1.845755e+003,1.275917e+003
1.847684e+003,1.276397e+003
1.849612e+003,1.277178e+003
1.851541e+003,1.276207e+003
1.853469e+003,1.278769e+003
1.855397e+003,1.291446e+003
1.857326e+003,1.307277e+003
1.859254e+003,1.316285e+003
1.861183e+003,1.318354e+003
1.863111e+003,1.310943e+003
1.865040e+003,1.286078e+003
1.866968e+003,1.270536e+003
1.868897e+003,1.270878e+003
1.870825e+003,1.275343e+003
1.872754e+003,1.279466e+003
1.874682e+003,1.287625e+003
1.876611e+003,1.310715e+003
1.878539e+003,1.339593e+003
1.880468e+003,1.343991e+003
1.882396e+003,1.322032e+003
1.884324e+003,1.307148e+003
1.886253e+003,1.303296e+003
1.888181e+003,1.301040e+003
1.890110e+003,1.300016e+003
1.892038e+003,1.296952e+003
1.893967e+003,1.284415e+003
1.895895e+003,1.273230e+003
1.897824e+003,1.278785e+003
1.899752e+003,1.294645e+003
1.901681e+003,1.298860e+003
1.903609e+003,1.290317e+003
1.905538e+003,1.286835e+003
1.907466e+003,1.293525e+003
1.909395e+003,1.298857e+003
1.911323e+003,1.296604e+003
1.913251e+003,1.295513e+003
1.915180e+003,1.300381e+003
1.917108e+003,1.308645e+003
1.919037e+003,1.319672e+003
1.920965e+003,1.331638e+003
1.922894e+003,1.333736e+003
1.924822e+003,1.322502e+003
1.926751e+003,1.315277e+003
1.928679e+003,1.312767e+003
1.930608e+003,1.314786e+003
1.932536e+003,1.326507e+003
1.934465e+003,1.337015e+003
1.936393e+003,1.338730e+003
1.938322e+003,1.336025e+003
1.940250e+003,1.332908e+003
1.942178e+003,1.329857e+003
1.944107e+003,1.333099e+003
1.946035e+003,1.345227e+003
1.947964e+003,1.353104e+003
1.949892e+003,1.355277e+003
1.951821e+003,1.355814e+003
1.953749e+003,1.354699e+003
1.955678e+003,1.354173e+003
1.957606e+003,1.356249e+003
1.959535e+003,1.358524e+003
1.961463e+003,1.357249e+003
1.963392e+003,1.353573e+003
1.965320e+003,1.351349e+003
1.967249e+003,1.350528e+003
1.969177e+003,1.354095e+003
1.971105e+003,1.365793e+003
1.973034e+003,1.371045e+003
1.974962e+003,1.358187e+003
1.976891e+003,1.350474e+003
1.978819e+003,1.364640e+003
1.980748e+003,1.383304e+003
1.982676e+003,1.390117e+003
1.984605e+003,1.388560e+003
1.986533e+003,1.385835e+003
1.988462e+003,1.381292e+003
1.990390e+003,1.382940e+003
1.992319e+003,1.398830e+003
1.994247e+003,1.407088e+003
1.996176e+003,1.402459e+003
1.998104e+003,1.398476e+003
2.000032e+003,1.395345e+003
2.001961e+003,1.397930e+003
2.003889e+003,1.414752e+003
2.005818e+003,1.435151e+003
2.007746e+003,1.442750e+003
2.009675e+003,1.438982e+003
2.011603e+003,1.435506e+003
2.013532e+003,1.432689e+003
2.015460e+003,1.425847e+003
2.017389e+003,1.412020e+003
2.019317e+003,1.404345e+003
2.021246e+003,1.409149e+003
2.023174e+003,1.416726e+003
2.025103e+003,1.421128e+003
2.027031e+003,1.427320e+003
2.028959e+003,1.445713e+003
2.030888e+003,1.465650e+003
2.032816e+003,1.462522e+003
2.034745e+003,1.438209e+003
2.036673e+003,1.427051e+003
2.038602e+003,1.434235e+003
2.040530e+003,1.440090e+003
2.042459e+003,1.446496e+003
2.044387e+003,1.448610e+003
2.046316e+003,1.439882e+003
2.048244e+003,1.433991e+003
2.050173e+003,1.441067e+003
2.052101e+003,1.449910e+003
2.054030e+003,1.446610e+003
2.055958e+003,1.438249e+003
2.057886e+003,1.442891e+003
2.059815e+003,1.459115e+003
2.061743e+003,1.472973e+003
2.063672e+003,1.484427e+003
2.065600e+003,1.487522e+003
2.067529e+003,1.477965e+003
2.069457e+003,1.469150e+003
2.071386e+003,1.465792e+003
2.073314e+003,1.463209e+003
2.075243e+003,1.457139e+003
2.077171e+003,1.453371e+003
2.079100e+003,1.458941e+003
2.081028e+003,1.469914e+003
2.082957e+003,1.479153e+003
2.084885e+003,1.486517e+003
2.086813e+003,1.490781e+003
2.088742e+003,1.490398e+003
2.090670e+003,1.490138e+003
2.092599e+003,1.493412e+003
2.094527e+003,1.488584e+003
2.096456e+003,1.460973e+003
2.098384e+003,1.444892e+003
2.100313e+003,1.463250e+003
2.102241e+003,1.486144e+003
2.104170e+003,1.498367e+003
2.106098e+003,1.500966e+003
2.108027e+003,1.489048e+003
2.109955e+003,1.469358e+003
2.111884e+003,1.462814e+003
2.113812e+003,1.469530e+003
2.115740e+003,1.479988e+003
2.117669e+003,1.499121e+003
2.119597e+003,1.505132e+003
2.121526e+003,1.480340e+003
2.123454e+003,1.465893e+003
2.125383e+003,1.477104e+003
2.127311e+003,1.491456e+003
2.129240e+003,1.498439e+003
2.131168e+003,1.502626e+003
2.133097e+003,1.505619e+003
2.135025e+003,1.509651e+003
2.136954e+003,1.522553e+003
2.138882e+003,1.541119e+003
2.140811e+003,1.547275e+003
2.142739e+003,1.541199e+003
2.144667e+003,1.538487e+003
2.146596e+003,1.541375e+003
2.148524e+003,1.544242e+003
2.150453e+003,1.545683e+003
2.152381e+003,1.546861e+003
2.154310e+003,1.549814e+003
2.156238e+003,1.549840e+003
2.158167e+003,1.541787e+003
2.160095e+003,1.532796e+003
2.162024e+003,1.528295e+003
2.163952e+003,1.528375e+003
2.165881e+003,1.533486e+003
2.167809e+003,1.543140e+003
2.169738e+003,1.556800e+003
2.171666e+003,1.574333e+003
2.173594e+003,1.578457e+003
2.175523e+003,1.565980e+003
2.177451e+003,1.549767e+003
2.179380e+003,1.525655e+003
2.181308e+003,1.516466e+003
2.183237e+003,1.546099e+003
2.185165e+003,1.568319e+003
2.187094e+003,1.553278e+003
2.189022e+003,1.536413e+003
2.190951e+003,1.547940e+003
2.192879e+003,1.568289e+003
2.194808e+003,1.571530e+003
2.196736e+003,1.562705e+003
2.198665e+003,1.556153e+003
2.200593e+003,1.551312e+003
2.202521e+003,1.543726e+003
2.204450e+003,1.531968e+003
2.206378e+003,1.538052e+003
2.208307e+003,1.571473e+003
2.210235e+003,1.586605e+003
2.212164e+003,1.563245e+003
2.214092e+003,1.548846e+003
2.216021e+003,1.572551e+003
2.217949e+003,1.591361e+003
2.219878e+003,1.575578e+003
2.221806e+003,1.557617e+003
2.223735e+003,1.563338e+003
2.225663e+003,1.580740e+003
2.227592e+003,1.599398e+003
2.229520e+003,1.615146e+003
2.231448e+003,1.614208e+003
2.233377e+003,1.598953e+003
2.235305e+003,1.593918e+003
2.237234e+003,1.600542e+003
2.239162e+003,1.590806e+003
2.241091e+003,1.557506e+003
2.243019e+003,1.538581e+003
2.244948e+003,1.544427e+003
2.246876e+003,1.555641e+003
2.248805e+003,1.570674e+003
2.250733e+003,1.583034e+003
2.252662e+003,1.588701e+003
2.254590e+003,1.591603e+003
2.256519e+003,1.595503e+003
2.258447e+003,1.597403e+003
2.260375e+003,1.590810e+003
2.262304e+003,1.583217e+003
2.264232e+003,1.591045e+003
2.266161e+003,1.607457e+003
2.268089e+003,1.609533e+003
2.270018e+003,1.598521e+003
2.271946e+003,1.589714e+003
2.273875e+003,1.583305e+003
2.275803e+003,1.581960e+003
2.277732e+003,1.590992e+003
2.279660e+003,1.594424e+003
2.281589e+003,1.587099e+003
2.283517e+003,1.581904e+003
2.285446e+003,1.576280e+003
2.287374e+003,1.579944e+003
2.289302e+003,1.604929e+003
2.291231e+003,1.628199e+003
2.293159e+003,1.638506e+003
2.295088e+003,1.639596e+003
2.297016e+003,1.628171e+003
2.298945e+003,1.614318e+003
2.300873e+003,1.613690e+003
2.302802e+003,1.621000e+003
2.304730e+003,1.622413e+003
2.306659e+003,1.618941e+003
2.308587e+003,1.620635e+003
2.310516e+003,1.629480e+003
2.312444e+003,1.623983e+003
2.314373e+003,1.599420e+003
2.316301e+003,1.591075e+003
2.318229e+003,1.607682e+003
2.320158e+003,1.616414e+003
2.322086e+003,1.604338e+003
2.324015e+003,1.602420e+003
2.325943e+003,1.633738e+003
2.327872e+003,1.657959e+003
2.329800e+003,1.655382e+003
2.331729e+003,1.646605e+003
2.333657e+003,1.639238e+003
2.335586e+003,1.634288e+003
2.337514e+003,1.631002e+003
2.339443e+003,1.631228e+003
2.341371e+003,1.642080e+003
2.343300e+003,1.655550e+003
2.345228e+003,1.655245e+003
2.347156e+003,1.645280e+003
2.349085e+003,1.637118e+003
2.351013e+003,1.631567e+003
2.352942e+003,1.631791e+003
2.354870e+003,1.639829e+003
2.356799e+003,1.643555e+003
2.358727e+003,1.639865e+003
2.360656e+003,1.641628e+003
2.362584e+003,1.651789e+003
2.364513e+003,1.657444e+003
2.366441e+003,1.652562e+003
2.368370e+003,1.653084e+003
2.370298e+003,1.669377e+003
2.372227e+003,1.679999e+003
2.374155e+003,1.672064e+003
2.376083e+003,1.661743e+003
2.378012e+003,1.658669e+003
2.379940e+003,1.655004e+003
2.381869e+003,1.639290e+003
2.383797e+003,1.626196e+003
2.385726e+003,1.631764e+003
2.387654e+003,1.648583e+003
2.389583e+003,1.674061e+003
2.391511e+003,1.699153e+003
2.393440e+003,1.703385e+003
2.395368e+003,1.691458e+003
2.397297e+003,1.677133e+003
2.399225e+003,1.661294e+003
2.401154e+003,1.659756e+003
2.403082e+003,1.674911e+003
2.405010e+003,1.682430e+003
2.406939e+003,1.680990e+003
2.408867e+003,1.677582e+003
2.410796e+003,1.670637e+003
2.412724e+003,1.675728e+003
2.414653e+003,1.702131e+003
2.416581e+003,1.714709e+003
2.418510e+003,1.686079e+003
2.420438e+003,1.678546e+003
2.422367e+003,1.737925e+003
2.424295e+003,1.775905e+003
2.426224e+003,1.745016e+003
2.428152e+003,1.709806e+003
2.430081e+003,1.697935e+003
2.432009e+003,1.694902e+003
2.433938e+003,1.698805e+003
2.435866e+003,1.702053e+003
2.437794e+003,1.693599e+003
2.439723e+003,1.686155e+003
2.441651e+003,1.699812e+003
2.443580e+003,1.717979e+003
2.445508e+003,1.708660e+003
2.447437e+003,1.686620e+003
2.449365e+003,1.689603e+003
2.451294e+003,1.709061e+003
2.453222e+003,1.712512e+003
2.455151e+003,1.704115e+003
2.457079e+003,1.704281e+003
2.459008e+003,1.712629e+003
2.460936e+003,1.709917e+003
2.462865e+003,1.693090e+003
2.464793e+003,1.690598e+003
2.466721e+003,1.708508e+003
2.468650e+003,1.719826e+003
2.470578e+003,1.722107e+003
2.472507e+003,1.723788e+003
2.474435e+003,1.724456e+003
2.476364e+003,1.727325e+003
2.478292e+003,1.734201e+003
2.480221e+003,1.739804e+003
2.482149e+003,1.743841e+003
2.484078e+003,1.746110e+003
2.486006e+003,1.750064e+003
2.487935e+003,1.747969e+003
2.489863e+003,1.729787e+003
2.491792e+003,1.715992e+003
2.493720e+003,1.715256e+003
2.495648e+003,1.717789e+003
2.497577e+003,1.725824e+003
2.499505e+003,1.725224e+003
2.501434e+003,1.691636e+003
2.503362e+003,1.663642e+003
2.505291e+003,1.686092e+003
2.507219e+003,1.718003e+003
2.509148e+003,1.714418e+003
2.511076e+003,1.698822e+003
2.513005e+003,1.695475e+003
2.514933e+003,1.701872e+003
2.516862e+003,1.719760e+003
2.518790e+003,1.740841e+003
2.520719e+003,1.750506e+003
2.522647e+003,1.750995e+003
2.524575e+003,1.746608e+003
2.526504e+003,1.738724e+003
2.528432e+003,1.728800e+003
2.530361e+003,1.719888e+003
2.532289e+003,1.735601e+003
2.534218e+003,1.770031e+003
2.536146e+003,1.784756e+003
2.538075e+003,1.778472e+003
2.540003e+003,1.766810e+003
2.541932e+003,1.749138e+003
2.543860e+003,1.735488e+003
2.545789e+003,1.725805e+003
2.547717e+003,1.724869e+003
2.549646e+003,1.734234e+003
2.551574e+003,1.740922e+003
2.553502e+003,1.743789e+003
2.555431e+003,1.742604e+003
2.557359e+003,1.733890e+003
2.559288e+003,1.729630e+003
2.561216e+003,1.730856e+003
2.563145e+003,1.736345e+003
2.565073e+003,1.748437e+003
2.567002e+003,1.758074e+003
2.568930e+003,1.764346e+003
2.570859e+003,1.767206e+003
2.572787e+003,1.765757e+003
2.574716e+003,1.763549e+003
2.576644e+003,1.763387e+003
2.578573e+003,1.758945e+003
2.580501e+003,1.738211e+003
2.582429e+003,1.729115e+003
2.584358e+003,1.749579e+003
2.586287e+003,1.761737e+003
2.588215e+003,1.745006e+003
2.590144e+003,1.728709e+003
2.592072e+003,1.723520e+003
2.594000e+003,1.727592e+003
2.595929e+003,1.748337e+003
2.597857e+003,1.766983e+003
2.599786e+003,1.771297e+003
2.601714e+003,1.772491e+003
2.603643e+003,1.777737e+003
2.605571e+003,1.779376e+003
2.607500e+003,1.768439e+003
2.609428e+003,1.756714e+003
2.611357e+003,1.752665e+003
2.613285e+003,1.752402e+003
2.615214e+003,1.753565e+003
2.617142e+003,1.756478e+003
2.619071e+003,1.759572e+003
2.620999e+003,1.766422e+003
2.622927e+003,1.786631e+003
2.624856e+003,1.805061e+003
2.626784e+003,1.804147e+003
2.628713e+003,1.795558e+003
2.630641e+003,1.791655e+003
2.632570e+003,1.788780e+003
2.634498e+003,1.778775e+003
2.636427e+003,1.770634e+003
2.638355e+003,1.782031e+003
2.640284e+003,1.795574e+003
2.642212e+003,1.780164e+003
2.644141e+003,1.758722e+003
2.646069e+003,1.769151e+003
2.647998e+003,1.793769e+003
2.649926e+003,1.808260e+003
2.651854e+003,1.813670e+003
2.653783e+003,1.809094e+003
2.655711e+003,1.799115e+003
2.657640e+003,1.785571e+003
2.659568e+003,1.775997e+003
2.661497e+003,1.793382e+003
2.663425e+003,1.819317e+003
2.665354e+003,1.807745e+003
2.667282e+003,1.780499e+003
2.669211e+003,1.787128e+003
2.671139e+003,1.810352e+003
2.673068e+003,1.817770e+003
2.674996e+003,1.815179e+003
2.676925e+003,1.814776e+003
2.678853e+003,1.815450e+003
2.680781e+003,1.814437e+003
2.682710e+003,1.812725e+003
2.684638e+003,1.813544e+003
2.686567e+003,1.815028e+003
2.688495e+003,1.811642e+003
2.690424e+003,1.806573e+003
2.692352e+003,1.808094e+003
2.694281e+003,1.813555e+003
2.696209e+003,1.817926e+003
2.698138e+003,1.819542e+003
2.700066e+003,1.805711e+003
2.701995e+003,1.789287e+003
2.703923e+003,1.805327e+003
2.705852e+003,1.836778e+003
2.707780e+003,1.840383e+003
2.709708e+003,1.827894e+003
2.711637e+003,1.830227e+003
2.713565e+003,1.840795e+003
2.715494e+003,1.849386e+003
2.717422e+003,1.852140e+003
2.719351e+003,1.833391e+003
2.721279e+003,1.808470e+003
2.723208e+003,1.817893e+003
2.725136e+003,1.841221e+003
2.727065e+003,1.824274e+003
2.728993e+003,1.793224e+003
2.730922e+003,1.805596e+003
2.732850e+003,1.836512e+003
2.734779e+003,1.842513e+003
2.736707e+003,1.836302e+003
2.738635e+003,1.842800e+003
2.740564e+003,1.853836e+003
2.742492e+003,1.856751e+003
2.744421e+003,1.853815e+003
2.746349e+003,1.843910e+003
2.748278e+003,1.835203e+003
2.750206e+003,1.841109e+003
2.752135e+003,1.853695e+003
2.754063e+003,1.865970e+003
2.755992e+003,1.873100e+003
2.757920e+003,1.865023e+003
2.759849e+003,1.852440e+003
2.761777e+003,1.846773e+003
2.763706e+003,1.845252e+003
2.765634e+003,1.847519e+003
2.767563e+003,1.849936e+003
2.769491e+003,1.845227e+003
2.771419e+003,1.841808e+003
2.773348e+003,1.849264e+003
2.775276e+003,1.857955e+003
2.777205e+003,1.858317e+003
2.779133e+003,1.856568e+003
2.781062e+003,1.859288e+003
2.782990e+003,1.859966e+003
2.784919e+003,1.850989e+003
2.786847e+003,1.841027e+003
2.788776e+003,1.834196e+003
2.790704e+003,1.830489e+003
2.792633e+003,1.832448e+003
2.794561e+003,1.835524e+003
2.796490e+003,1.843621e+003
2.798418e+003,1.844030e+003
2.800346e+003,1.819298e+003
2.802275e+003,1.808911e+003
2.804203e+003,1.844266e+003
2.806132e+003,1.877376e+003
2.808060e+003,1.885138e+003
2.809989e+003,1.890387e+003
2.811917e+003,1.898162e+003
2.813846e+003,1.906323e+003
2.815774e+003,1.918879e+003
2.817703e+003,1.920187e+003
2.819631e+003,1.892442e+003
2.821560e+003,1.878061e+003
2.823488e+003,1.889198e+003
2.825417e+003,1.903584e+003
2.827345e+003,1.919151e+003
2.829273e+003,1.936767e+003
2.831202e+003,1.959390e+003
2.833130e+003,1.974442e+003
2.835059e+003,1.966902e+003
2.836987e+003,1.990208e+003
2.838916e+003,2.053577e+003
2.840844e+003,2.081971e+003
2.842773e+003,2.065628e+003
2.844701e+003,2.051334e+003
2.846630e+003,2.042782e+003
2.848558e+003,2.040719e+003
2.850487e+003,2.045871e+003
2.852415e+003,2.058104e+003
2.854344e+003,2.074740e+003
2.856272e+003,2.064681e+003
2.858200e+003,2.031000e+003
2.860129e+003,2.008577e+003
2.862057e+003,1.995027e+003
2.863986e+003,1.976169e+003
2.865914e+003,1.955591e+003
2.867843e+003,1.943675e+003
2.869771e+003,1.940804e+003
2.871700e+003,1.954455e+003
2.873628e+003,1.972501e+003
2.875557e+003,1.969316e+003
2.877485e+003,1.956729e+003
2.879414e+003,1.949226e+003
2.881342e+003,1.947778e+003
2.883271e+003,1.954933e+003
2.885199e+003,1.967676e+003
2.887127e+003,1.981489e+003
2.889056e+003,2.001257e+003
2.890984e+003,2.027086e+003
2.892913e+003,2.064970e+003
2.894841e+003,2.126828e+003
2.896770e+003,2.188684e+003
2.898698e+003,2.254996e+003
2.900627e+003,2.288367e+003
2.902555e+003,2.268721e+003
2.904484e+003,2.226470e+003
2.906412e+003,2.152170e+003
2.908341e+003,2.103438e+003
2.910269e+003,2.112767e+003
2.912198e+003,2.120133e+003
2.914126e+003,2.114291e+003
2.916054e+003,2.124066e+003
2.917983e+003,2.154575e+003
2.919911e+003,2.188363e+003
2.921840e+003,2.221941e+003
2.923768e+003,2.270021e+003
2.925697e+003,2.339034e+003
2.927625e+003,2.346152e+003
2.929554e+003,2.297469e+003
2.931482e+003,2.277063e+003
2.933411e+003,2.286305e+003
2.935339e+003,2.319241e+003
2.937268e+003,2.365260e+003
2.939196e+003,2.374524e+003
2.941125e+003,2.362696e+003
2.943053e+003,2.364946e+003
2.944981e+003,2.375210e+003
2.946910e+003,2.402891e+003
2.948838e+003,2.413665e+003
2.950767e+003,2.339259e+003
2.952695e+003,2.253760e+003
2.954624e+003,2.213418e+003
2.956552e+003,2.199001e+003
2.958481e+003,2.213955e+003
2.960409e+003,2.224025e+003
2.962338e+003,2.194531e+003
2.964266e+003,2.184069e+003
2.966195e+003,2.222781e+003
2.968123e+003,2.260160e+003
2.970052e+003,2.284051e+003
2.971980e+003,2.297022e+003
2.973908e+003,2.305067e+003
2.975837e+003,2.279103e+003
2.977765e+003,2.208534e+003
2.979694e+003,2.157266e+003
2.981622e+003,2.135297e+003
2.983551e+003,2.120465e+003
2.985479e+003,2.112405e+003
2.987408e+003,2.102572e+003
2.989336e+003,2.088905e+003
2.991265e+003,2.058435e+003
2.993193e+003,2.017962e+003
2.995122e+003,1.981127e+003
2.997050e+003,1.956422e+003
2.998979e+003,1.970681e+003
3.000907e+003,1.999827e+003
3.002835e+003,2.016827e+003
3.004764e+003,2.027610e+003
3.006692e+003,2.033119e+003
3.008621e+003,2.040592e+003
3.010549e+003,2.058921e+003
3.012478e+003,2.072081e+003
3.014406e+003,2.060847e+003
3.016335e+003,2.062133e+003
3.018263e+003,2.097908e+003
3.020192e+003,2.133919e+003
3.022120e+003,2.171802e+003
3.024049e+003,2.179504e+003
3.025977e+003,2.139303e+003
3.027906e+003,2.115564e+003
3.029834e+003,2.110850e+003
3.031762e+003,2.117223e+003
3.033691e+003,2.137297e+003
3.035619e+003,2.202390e+003
3.037548e+003,2.306156e+003
3.039476e+003,2.413913e+003
3.041405e+003,2.539639e+003
3.043333e+003,2.726922e+003
3.045262e+003,2.947315e+003
3.047190e+003,3.236738e+003
3.049119e+003,3.441496e+003
3.051047e+003,3.390782e+003
3.052976e+003,3.198975e+003
3.054904e+003,2.863503e+003
3.056833e+003,2.563465e+003
3.058761e+003,2.379503e+003
3.060689e+003,2.257195e+003
3.062618e+003,2.193616e+003
3.064546e+003,2.173345e+003
3.066475e+003,2.205717e+003
3.068403e+003,2.211831e+003
3.070332e+003,2.167531e+003
3.072260e+003,2.183881e+003
3.074189e+003,2.258904e+003
3.076117e+003,2.246958e+003
3.078046e+003,2.171924e+003
3.079974e+003,2.141012e+003
3.081903e+003,2.133443e+003
3.083831e+003,2.099102e+003
3.085760e+003,2.059586e+003
3.087688e+003,2.044177e+003
3.089616e+003,2.039508e+003
3.091545e+003,2.038757e+003
3.093473e+003,2.039914e+003
3.095402e+003,2.046890e+003
3.097330e+003,2.044340e+003
3.099259e+003,2.016840e+003
3.101187e+003,2.008113e+003
3.103116e+003,2.044222e+003
3.105044e+003,2.066660e+003
3.106973e+003,2.072673e+003
3.108901e+003,2.085519e+003
3.110830e+003,2.104684e+003
3.112758e+003,2.085058e+003
3.114687e+003,2.039648e+003
3.116615e+003,2.038189e+003
3.118543e+003,2.056879e+003
3.120472e+003,2.050436e+003
3.122400e+003,2.029672e+003
3.124329e+003,1.992443e+003
3.126257e+003,1.968471e+003
3.128186e+003,1.994666e+003
3.130114e+003,2.015976e+003
3.132043e+003,1.999795e+003
3.133971e+003,1.990605e+003
3.135900e+003,2.003964e+003
3.137828e+003,2.014528e+003
3.139757e+003,2.019615e+003
3.141685e+003,2.012681e+003
3.143614e+003,1.990783e+003
3.145542e+003,1.986200e+003
3.147470e+003,1.996299e+003
3.149399e+003,2.012433e+003
3.151327e+003,2.024825e+003
3.153256e+003,2.007552e+003
3.155184e+003,1.981892e+003
3.157113e+003,1.973312e+003
3.159041e+003,1.969502e+003
3.160970e+003,1.959403e+003
3.162898e+003,1.953418e+003
3.164827e+003,1.959954e+003
3.166755e+003,1.963932e+003
3.168684e+003,1.964314e+003
3.170612e+003,1.958147e+003
3.172541e+003,1.944465e+003
3.174469e+003,1.938709e+003
3.176397e+003,1.941356e+003
3.178326e+003,1.940527e+003
3.180254e+003,1.937687e+003
3.182183e+003,1.934080e+003
3.184111e+003,1.934963e+003
3.186040e+003,1.961990e+003
3.187968e+003,1.980860e+003
3.189897e+003,1.953127e+003
3.191825e+003,1.927338e+003
3.193754e+003,1.933010e+003
3.195682e+003,1.939850e+003
3.197611e+003,1.938927e+003
3.199539e+003,1.951101e+003
3.201468e+003,1.984121e+003
3.203396e+003,1.990155e+003
3.205324e+003,1.967661e+003
3.207253e+003,1.951302e+003
3.209181e+003,1.943149e+003
3.211110e+003,1.961355e+003
3.213038e+003,1.978467e+003
3.214967e+003,1.926553e+003
3.216895e+003,1.887228e+003
3.218824e+003,1.941010e+003
3.220752e+003,1.995996e+003
3.222681e+003,2.009533e+003
3.224609e+003,2.007201e+003
3.226538e+003,1.990199e+003
3.228466e+003,1.974267e+003
3.230395e+003,1.960708e+003
3.232323e+003,1.951642e+003
3.234251e+003,1.946745e+003
3.236180e+003,1.947313e+003
3.238108e+003,1.950077e+003
3.240037e+003,1.948945e+003
3.241965e+003,1.945789e+003
3.243894e+003,1.939175e+003
3.245822e+003,1.937964e+003
3.247751e+003,1.954482e+003
3.249679e+003,1.961482e+003
3.251608e+003,1.941642e+003
3.253536e+003,1.922822e+003
3.255465e+003,1.905341e+003
3.257393e+003,1.912416e+003
3.259322e+003,1.942498e+003
3.261250e+003,1.939059e+003
3.263178e+003,1.917001e+003
3.265107e+003,1.920440e+003
3.267035e+003,1.937713e+003
3.268964e+003,1.967709e+003
3.270892e+003,1.986298e+003
3.272821e+003,1.970559e+003
3.274749e+003,1.953031e+003
3.276678e+003,1.944372e+003
3.278606e+003,1.933554e+003
3.280535e+003,1.914797e+003
3.282463e+003,1.921830e+003
3.284392e+003,1.950455e+003
3.286320e+003,1.962182e+003
3.288249e+003,1.958749e+003
3.290177e+003,1.935553e+003
3.292105e+003,1.914867e+003
3.294034e+003,1.923784e+003
3.295962e+003,1.940249e+003
3.297891e+003,1.958711e+003
3.299819e+003,1.964972e+003
3.301748e+003,1.952751e+003
3.303676e+003,1.942954e+003
3.305605e+003,1.938176e+003
3.307533e+003,1.941684e+003
3.309462e+003,1.951218e+003
3.311390e+003,1.952140e+003
3.313319e+003,1.950029e+003
3.315247e+003,1.952273e+003
3.317176e+003,1.960440e+003
3.319104e+003,1.985755e+003
3.321032e+003,1.998623e+003
3.322961e+003,1.969824e+003
3.324889e+003,1.961373e+003
3.326818e+003,1.984766e+003
3.328746e+003,1.999968e+003
3.330675e+003,2.004098e+003
3.332603e+003,2.010832e+003
3.334532e+003,2.014523e+003
3.336460e+003,1.988205e+003
3.338389e+003,1.962287e+003
3.340317e+003,1.980691e+003
3.342246e+003,1.994828e+003
3.344174e+003,1.972221e+003
3.346103e+003,1.956133e+003
3.348031e+003,1.957509e+003
3.349959e+003,1.963551e+003
3.351888e+003,1.973660e+003
3.353816e+003,1.975642e+003
3.355745e+003,1.972329e+003
3.357673e+003,1.969418e+003
3.359602e+003,1.971407e+003
3.361530e+003,1.990787e+003
3.363459e+003,2.007709e+003
3.365387e+003,2.005654e+003
3.367316e+003,2.008751e+003
3.369244e+003,2.023757e+003
3.371173e+003,2.042441e+003
3.373101e+003,2.064471e+003
3.375030e+003,2.090158e+003
3.376958e+003,2.119507e+003
3.378886e+003,2.148193e+003
3.380815e+003,2.186569e+003
3.382743e+003,2.237962e+003
3.384672e+003,2.315595e+003
3.386600e+003,2.416726e+003
3.388529e+003,2.569518e+003
3.390457e+003,2.772729e+003
3.392386e+003,3.096751e+003
3.394314e+003,3.544899e+003
3.396243e+003,3.872539e+003
3.398171e+003,4.051916e+003
3.400100e+003,4.023294e+003
3.402028e+003,3.858358e+003
3.403957e+003,3.570039e+003
3.405885e+003,3.281279e+003
3.407813e+003,3.040021e+003
3.409742e+003,2.819747e+003
3.411670e+003,2.613793e+003
3.413599e+003,2.434298e+003
3.415527e+003,2.287635e+003
3.417456e+003,2.200947e+003
3.419384e+003,2.158834e+003
3.421313e+003,2.157264e+003
3.423241e+003,2.151405e+003
3.425170e+003,2.086313e+003
3.427098e+003,2.052488e+003
3.429027e+003,2.085640e+003
3.430955e+003,2.112432e+003
3.432884e+003,2.123979e+003
3.434812e+003,2.099594e+003
3.436740e+003,2.056005e+003
3.438669e+003,2.061087e+003
3.440597e+003,2.078447e+003
3.442526e+003,2.072905e+003
3.444454e+003,2.057870e+003
3.446383e+003,2.034966e+003
3.448311e+003,2.019482e+003
3.450240e+003,2.014737e+003
3.452168e+003,2.017038e+003
3.454097e+003,2.023498e+003
3.456025e+003,2.018424e+003
3.457954e+003,2.010064e+003
3.459882e+003,2.016470e+003
3.461811e+003,2.018319e+003
3.463739e+003,2.003760e+003
3.465667e+003,1.987684e+003
3.467596e+003,1.971850e+003
3.469524e+003,1.964819e+003
3.471453e+003,1.965066e+003
3.473381e+003,1.956939e+003
3.475310e+003,1.950027e+003
3.477238e+003,1.978290e+003
3.479167e+003,1.999332e+003
3.481095e+003,1.965383e+003
3.483024e+003,1.949487e+003
3.484952e+003,1.979854e+003
3.486881e+003,2.005139e+003
3.488809e+003,2.019672e+003
3.490738e+003,1.997086e+003
3.492666e+003,1.961961e+003
3.494594e+003,1.989420e+003
3.496523e+003,2.017915e+003
3.498451e+003,1.990866e+003
3.500380e+003,1.962234e+003
3.502308e+003,1.942843e+003
3.504237e+003,1.946301e+003
3.506165e+003,1.974066e+003
3.508094e+003,1.999167e+003
3.510022e+003,2.016322e+003
3.511951e+003,2.012714e+003
3.513879e+003,1.997836e+003
3.515808e+003,1.960646e+003
3.517736e+003,1.957690e+003
3.519665e+003,2.016720e+003
3.521593e+003,2.041063e+003
3.523521e+003,2.022346e+003
3.525450e+003,2.003136e+003
3.527378e+003,1.985806e+003
3.529307e+003,1.969226e+003
3.531235e+003,1.965351e+003
3.533164e+003,1.993487e+003
3.535092e+003,2.010972e+003
3.537021e+003,1.999879e+003
3.538949e+003,2.000318e+003
3.540878e+003,2.011722e+003
3.542806e+003,2.012845e+003
3.544735e+003,2.006548e+003
3.546663e+003,1.998928e+003
3.548592e+003,1.980882e+003
3.550520e+003,1.936359e+003
3.552448e+003,1.911240e+003
3.554377e+003,1.918356e+003
3.556305e+003,1.927856e+003
3.558234e+003,1.941939e+003
3.560162e+003,1.983526e+003
3.562091e+003,2.021074e+003
3.564019e+003,2.002000e+003
3.565948e+003,1.985143e+003
3.567876e+003,2.003835e+003
3.569805e+003,2.014577e+003
3.571733e+003,2.013982e+003
3.573662e+003,2.011413e+003
3.575590e+003,2.010266e+003
3.577519e+003,2.026124e+003
3.579447e+003,2.035918e+003
3.581376e+003,2.011955e+003
3.583304e+003,1.996556e+003
3.585233e+003,2.003845e+003
3.587161e+003,1.999562e+003
3.589090e+003,1.984095e+003
3.591018e+003,1.988484e+003
3.592947e+003,1.998939e+003
3.594875e+003,1.997237e+003
3.596803e+003,1.988411e+003
3.598732e+003,1.967547e+003
3.600660e+003,1.960927e+003
3.602589e+003,1.971313e+003
3.604517e+003,1.988946e+003
3.606446e+003,1.990383e+003
3.608374e+003,1.843759e+003
3.610303e+003,1.732470e+003
3.612231e+003,1.860394e+003
3.614160e+003,1.966179e+003
3.616088e+003,1.988610e+003
3.618017e+003,1.996232e+003
3.619945e+003,1.996588e+003
3.621874e+003,1.996705e+003
3.623802e+003,1.990565e+003
3.625730e+003,1.956868e+003
3.627659e+003,1.942733e+003
3.629587e+003,1.978782e+003
3.631516e+003,1.993636e+003
3.633444e+003,1.978483e+003
3.635373e+003,1.993381e+003
3.637301e+003,2.015230e+003
3.639230e+003,1.989077e+003
3.641158e+003,1.961636e+003
3.643087e+003,1.971175e+003
3.645015e+003,1.971513e+003
3.646944e+003,1.955982e+003
3.648872e+003,1.942801e+003
3.650801e+003,1.936837e+003
3.652729e+003,1.964955e+003
3.654657e+003,1.990976e+003
3.656586e+003,1.972115e+003
3.658514e+003,1.969536e+003
3.660443e+003,1.999147e+003
3.662371e+003,2.012915e+003
3.664300e+003,2.011867e+003
3.666228e+003,2.012342e+003
3.668157e+003,2.009511e+003
3.670085e+003,1.990927e+003
3.672014e+003,1.982810e+003
3.673942e+003,1.994049e+003
3.675871e+003,1.998677e+003
3.677799e+003,1.994482e+003
3.679728e+003,1.976433e+003
3.681656e+003,1.961963e+003
3.683584e+003,1.983530e+003
3.685513e+003,1.990879e+003
3.687441e+003,1.960714e+003
3.689370e+003,1.957294e+003
3.691298e+003,1.983045e+003
3.693227e+003,1.983840e+003
3.695155e+003,1.974019e+003
3.697084e+003,1.970736e+003
3.699012e+003,1.970604e+003
3.700941e+003,1.972077e+003
3.702869e+003,1.978865e+003
3.704798e+003,1.990970e+003
3.706726e+003,1.998913e+003
3.708655e+003,2.001120e+003
3.710583e+003,1.990952e+003
3.712511e+003,1.984186e+003
3.714440e+003,1.989658e+003
3.716368e+003,1.988893e+003
3.718297e+003,1.980417e+003
3.720225e+003,1.979317e+003
3.722154e+003,1.975255e+003
3.724082e+003,1.945338e+003
3.726011e+003,1.926339e+003
3.727939e+003,1.939714e+003
3.729868e+003,1.935181e+003
3.731796e+003,1.913613e+003
3.733725e+003,1.941461e+003
3.735653e+003,1.980686e+003
3.737582e+003,1.975726e+003
3.739510e+003,1.973907e+003
3.741438e+003,1.998510e+003
3.743367e+003,1.998526e+003
3.745295e+003,1.976242e+003
3.747224e+003,1.981356e+003
3.749152e+003,1.990044e+003
3.751081e+003,1.970198e+003
3.753009e+003,1.955104e+003
3.754938e+003,1.955498e+003
3.756866e+003,1.959095e+003
3.758795e+003,1.962063e+003
3.760723e+003,1.948821e+003
3.762652e+003,1.933617e+003
3.764580e+003,1.927607e+003
3.766509e+003,1.929999e+003
3.768437e+003,1.941803e+003
3.770365e+003,1.946333e+003
3.772294e+003,1.946195e+003
3.774222e+003,1.950667e+003
3.776151e+003,1.958064e+003
3.778079e+003,1.967660e+003
3.780008e+003,1.979925e+003
3.781936e+003,1.995658e+003
3.783865e+003,1.975838e+003
3.785793e+003,1.940472e+003
3.787722e+003,1.924168e+003
3.789650e+003,1.923410e+003
3.791579e+003,1.939567e+003
3.793507e+003,1.965953e+003
3.795436e+003,1.997773e+003
3.797364e+003,1.977324e+003
3.799292e+003,1.938629e+003
3.801221e+003,1.914851e+003
3.803149e+003,1.914866e+003
3.805078e+003,1.952500e+003
3.807006e+003,1.962379e+003
3.808935e+003,1.950301e+003
3.810863e+003,1.950969e+003
3.812792e+003,1.953503e+003
3.814720e+003,1.950298e+003
3.816649e+003,1.939651e+003
3.818577e+003,1.917261e+003
3.820506e+003,1.925637e+003
3.822434e+003,1.946896e+003
3.824363e+003,1.941010e+003
3.826291e+003,1.935578e+003
3.828219e+003,1.944169e+003
3.830148e+003,1.961303e+003
3.832076e+003,1.983460e+003
3.834005e+003,1.970139e+003
3.835933e+003,1.948908e+003
3.837862e+003,1.948359e+003
3.839790e+003,1.961242e+003
3.841719e+003,1.988334e+003
3.843647e+003,1.969263e+003
3.845576e+003,1.922925e+003
3.847504e+003,1.906411e+003
3.849433e+003,1.903987e+003
3.851361e+003,1.910470e+003
3.853290e+003,1.919500e+003
3.855218e+003,1.929526e+003
3.857146e+003,1.929305e+003
3.859075e+003,1.930858e+003
3.861003e+003,1.965492e+003
3.862932e+003,1.970957e+003
3.864860e+003,1.909773e+003
3.866789e+003,1.898529e+003
3.868717e+003,1.924396e+003
3.870646e+003,1.942004e+003
3.872574e+003,1.954365e+003
3.874503e+003,1.965406e+003
3.876431e+003,1.962748e+003
3.878360e+003,1.946425e+003
3.880288e+003,1.933459e+003
3.882217e+003,1.923948e+003
3.884145e+003,1.915013e+003
3.886073e+003,1.919714e+003
3.888002e+003,1.946966e+003
3.889930e+003,1.952620e+003
3.891859e+003,1.940362e+003
3.893787e+003,1.911232e+003
3.895716e+003,1.894824e+003
3.897644e+003,1.909040e+003
3.899573e+003,1.928649e+003
3.901501e+003,1.947516e+003
3.903430e+003,1.940163e+003
3.905358e+003,1.923087e+003
3.907287e+003,1.903224e+003
3.909215e+003,1.903391e+003
3.911144e+003,1.926558e+003
3.913072e+003,1.953551e+003
3.915000e+003,1.971004e+003
3.916929e+003,1.947002e+003
3.918857e+003,1.927794e+003
3.920786e+003,1.938113e+003
3.922714e+003,1.925685e+003
3.924643e+003,1.900021e+003
3.926571e+003,1.892855e+003
3.928500e+003,1.900542e+003
3.930428e+003,1.928178e+003
3.932357e+003,1.939228e+003
3.934285e+003,1.931681e+003
3.936214e+003,1.905492e+003
3.938142e+003,1.881197e+003
3.940071e+003,1.880020e+003
3.941999e+003,1.885452e+003
3.943927e+003,1.894282e+003
3.945856e+003,1.908508e+003
3.947784e+003,1.921077e+003
3.949713e+003,1.924683e+003
3.951641e+003,1.916931e+003
3.953570e+003,1.896028e+003
3.955498e+003,1.909487e+003
3.957427e+003,1.939750e+003
3.959355e+003,1.939084e+003
3.961284e+003,1.925877e+003
3.963212e+003,1.900770e+003
3.965141e+003,1.893846e+003
3.967069e+003,1.902440e+003
3.968998e+003,1.909676e+003
3.970926e+003,1.914405e+003
3.972854e+003,1.919867e+003
3.974783e+003,1.901701e+003
3.976711e+003,1.867246e+003
3.978640e+003,1.897739e+003
3.980568e+003,1.936089e+003
3.982497e+003,1.924313e+003
3.984425e+003,1.919958e+003
3.986354e+003,1.934681e+003
3.988282e+003,1.890279e+003
3.990211e+003,1.844434e+003
3.992139e+003,1.885424e+003
3.994068e+003,1.913568e+003
3.995996e+003,1.906186e+003
3.997925e+003,1.878963e+003
3.999853e+003,1.858259e+003
4.001781e+003,1.900635e+003
4.003710e+003,1.930564e+003
4.005638e+003,1.926819e+003
4.007567e+003,1.891351e+003
4.009495e+003,1.846725e+003
4.011424e+003,1.832512e+003
4.013352e+003,1.841555e+003
4.015281e+003,1.887321e+003
4.017209e+003,1.903352e+003
4.019138e+003,1.895013e+003
4.021066e+003,1.872996e+003
4.022995e+003,1.855919e+003
4.024923e+003,1.851441e+003
4.026852e+003,1.863015e+003
4.028780e+003,1.881805e+003
4.030708e+003,1.874910e+003
4.032637e+003,1.867714e+003
4.034565e+003,1.875322e+003
4.036494e+003,1.874349e+003
4.038422e+003,1.867849e+003
4.040351e+003,1.883248e+003
4.042279e+003,1.892727e+003
4.044208e+003,1.874263e+003
4.046136e+003,1.853042e+003
4.048065e+003,1.833988e+003
4.049993e+003,1.832210e+003
4.051922e+003,1.831740e+003
4.053850e+003,1.817396e+003
4.055779e+003,1.833335e+003
4.057707e+003,1.873345e+003
4.059635e+003,1.894870e+003
4.061564e+003,1.894085e+003
4.063492e+003,1.858714e+003
4.065421e+003,1.844677e+003
4.067349e+003,1.852925e+003
4.069278e+003,1.858528e+003
4.071206e+003,1.864435e+003
4.073135e+003,1.877255e+003
4.075063e+003,1.878095e+003
4.076992e+003,1.867899e+003
4.078920e+003,1.854668e+003
4.080849e+003,1.844895e+003
4.082777e+003,1.845037e+003
4.084706e+003,1.839599e+003
4.086634e+003,1.826660e+003
4.088563e+003,1.790571e+003
4.090491e+003,1.779502e+003
4.092419e+003,1.830694e+003
4.094348e+003,1.837811e+003
4.096276e+003,1.809783e+003
4.098205e+003,1.819954e+003
4.100133e+003,1.830225e+003
4.102062e+003,1.817406e+003
4.103990e+003,1.810880e+003
4.105919e+003,1.810688e+003
4.107847e+003,1.816277e+003
4.109776e+003,1.813602e+003
4.111704e+003,1.784541e+003
4.113633e+003,1.779984e+003
4.115561e+003,1.791661e+003
4.117490e+003,1.800719e+003
4.119418e+003,1.804536e+003
4.121347e+003,1.801799e+003
4.123275e+003,1.806692e+003
4.125204e+003,1.814226e+003
4.127132e+003,1.810963e+003
4.129061e+003,1.811125e+003
4.130989e+003,1.818566e+003
4.132917e+003,1.806166e+003
4.134846e+003,1.792977e+003
4.136774e+003,1.816941e+003
4.138703e+003,1.830525e+003
4.140631e+003,1.821479e+003
4.142560e+003,1.825859e+003
4.144488e+003,1.827780e+003
4.146417e+003,1.804744e+003
4.148345e+003,1.779783e+003
4.150273e+003,1.758558e+003
4.152202e+003,1.769274e+003
4.154130e+003,1.788444e+003
4.156059e+003,1.797485e+003
4.157987e+003,1.794698e+003
4.159916e+003,1.785528e+003
4.161844e+003,1.813299e+003
4.163773e+003,1.832486e+003
4.165701e+003,1.803754e+003
4.167630e+003,1.790310e+003
4.169558e+003,1.789690e+003
4.171487e+003,1.781222e+003
4.173415e+003,1.778623e+003
4.175344e+003,1.789137e+003
4.177272e+003,1.776001e+003
4.179201e+003,1.757416e+003
4.181129e+003,1.774695e+003
4.183058e+003,1.796552e+003
4.184986e+003,1.814157e+003
4.186915e+003,1.793982e+003
4.188843e+003,1.772123e+003
4.190771e+003,1.804254e+003
4.192700e+003,1.800083e+003
4.194628e+003,1.752182e+003
4.196557e+003,1.776057e+003
4.198485e+003,1.806727e+003
4.200414e+003,1.794742e+003
4.202342e+003,1.776110e+003
4.204271e+003,1.762237e+003
4.206199e+003,1.798544e+003
4.208127e+003,1.816709e+003
4.210056e+003,1.771944e+003
4.211984e+003,1.778080e+003
4.213913e+003,1.807685e+003
4.215841e+003,1.793675e+003
4.217770e+003,1.781586e+003
4.219698e+003,1.784849e+003
4.221627e+003,1.790390e+003
4.223555e+003,1.790195e+003
4.225484e+003,1.762234e+003
4.227412e+003,1.766957e+003
4.229341e+003,1.801019e+003
4.231269e+003,1.776252e+003
4.233198e+003,1.750094e+003
4.235126e+003,1.765217e+003
4.237055e+003,1.786322e+003
4.238983e+003,1.798160e+003
4.240912e+003,1.751562e+003
4.242840e+003,1.724461e+003
4.244769e+003,1.747397e+003
4.246697e+003,1.769303e+003
4.248625e+003,1.779526e+003
4.250554e+003,1.778396e+003
