1.159199e+002,6.580473e+002
1.178484e+002,6.996841e+002
1.197769e+002,7.237271e+002
1.217053e+002,7.289023e+002
1.236338e+002,7.189731e+002
1.255623e+002,6.870901e+002
1.274907e+002,6.441997e+002
1.294192e+002,6.004948e+002
1.313477e+002,5.493608e+002
1.332761e+002,5.052269e+002
1.352046e+002,4.717822e+002
1.371331e+002,4.499392e+002
1.390615e+002,4.365379e+002
1.409900e+002,4.318732e+002
1.429185e+002,4.351483e+002
1.448469e+002,4.478453e+002
1.467754e+002,4.809423e+002
1.487039e+002,5.123997e+002
1.506323e+002,5.356812e+002
1.525608e+002,5.549119e+002
1.544893e+002,5.545337e+002
1.564177e+002,5.298331e+002
1.583462e+002,4.860005e+002
1.602747e+002,4.420359e+002
1.622031e+002,3.949459e+002
1.641316e+002,3.514174e+002
1.660601e+002,3.136916e+002
1.679885e+002,2.799449e+002
1.699170e+002,2.542554e+002
1.718455e+002,2.365910e+002
1.737739e+002,2.272753e+002
1.757024e+002,2.221687e+002
1.776309e+002,2.247588e+002
1.795593e+002,2.292325e+002
1.814878e+002,2.307285e+002
1.834163e+002,2.274297e+002
1.853447e+002,2.230507e+002
1.872732e+002,2.178284e+002
1.892017e+002,2.119061e+002
1.911301e+002,2.061971e+002
1.930586e+002,2.015240e+002
1.949871e+002,1.970703e+002
1.969155e+002,1.916140e+002
1.988440e+002,1.827124e+002
2.007725e+002,1.752255e+002
2.027009e+002,1.708399e+002
2.046294e+002,1.693887e+002
2.065579e+002,1.689248e+002
2.084864e+002,1.703633e+002
2.104148e+002,1.723208e+002
2.123433e+002,1.714953e+002
2.142718e+002,1.647321e+002
2.162002e+002,1.588463e+002
2.181287e+002,1.566303e+002
2.200572e+002,1.592985e+002
2.219856e+002,1.626432e+002
2.239141e+002,1.678968e+002
2.258426e+002,1.734671e+002
2.277710e+002,1.758218e+002
2.296995e+002,1.727079e+002
2.316280e+002,1.688972e+002
2.335564e+002,1.667117e+002
2.354849e+002,1.687310e+002
2.374134e+002,1.690293e+002
2.393418e+002,1.655134e+002
2.412703e+002,1.602137e+002
2.431988e+002,1.575294e+002
2.451272e+002,1.599014e+002
2.470557e+002,1.634068e+002
2.489842e+002,1.662699e+002
2.509126e+002,1.680970e+002
2.528411e+002,1.699503e+002
2.547696e+002,1.722244e+002
2.566980e+002,1.746725e+002
2.586265e+002,1.765638e+002
2.605550e+002,1.795924e+002
2.624834e+002,1.809575e+002
2.644119e+002,1.779381e+002
2.663404e+002,1.692148e+002
2.682688e+002,1.620750e+002
2.701973e+002,1.582282e+002
2.721258e+002,1.571340e+002
2.740542e+002,1.578375e+002
2.759827e+002,1.620546e+002
2.779112e+002,1.664840e+002
2.798396e+002,1.691038e+002
2.817681e+002,1.696833e+002
2.836966e+002,1.701749e+002
2.856250e+002,1.714901e+002
2.875535e+002,1.732978e+002
2.894820e+002,1.739344e+002
2.914104e+002,1.727353e+002
2.933389e+002,1.713696e+002
2.952674e+002,1.708571e+002
2.971958e+002,1.715672e+002
2.991243e+002,1.717081e+002
3.010528e+002,1.704713e+002
3.029813e+002,1.683911e+002
3.049097e+002,1.671613e+002
3.068382e+002,1.671763e+002
3.087667e+002,1.673610e+002
3.106951e+002,1.667731e+002
3.126236e+002,1.644791e+002
3.145521e+002,1.643549e+002
3.164805e+002,1.687511e+002
3.184090e+002,1.752288e+002
3.203375e+002,1.786814e+002
3.222659e+002,1.775109e+002
3.241944e+002,1.758001e+002
3.261229e+002,1.747023e+002
3.280513e+002,1.733915e+002
3.299798e+002,1.753867e+002
3.319083e+002,1.833552e+002
3.338367e+002,1.935882e+002
3.357652e+002,2.013007e+002
3.376937e+002,2.063298e+002
3.396221e+002,2.086465e+002
3.415506e+002,2.082666e+002
3.434791e+002,2.046822e+002
3.454075e+002,2.001875e+002
3.473360e+002,1.934512e+002
3.492645e+002,1.866904e+002
3.511929e+002,1.815252e+002
3.531214e+002,1.779561e+002
3.550499e+002,1.762600e+002
3.569783e+002,1.775774e+002
3.589068e+002,1.817652e+002
3.608353e+002,1.834578e+002
3.627637e+002,1.798834e+002
3.646922e+002,1.760308e+002
3.666207e+002,1.746212e+002
3.685491e+002,1.762531e+002
3.704776e+002,1.794857e+002
3.724061e+002,1.860927e+002
3.743345e+002,1.944330e+002
3.762630e+002,1.986535e+002
3.781915e+002,1.948996e+002
3.801199e+002,1.914420e+002
3.820484e+002,1.926491e+002
3.839769e+002,2.021567e+002
3.859053e+002,2.071487e+002
3.878338e+002,2.032200e+002
3.897623e+002,1.953826e+002
3.916907e+002,1.918463e+002
3.936192e+002,1.947301e+002
3.955477e+002,1.981047e+002
3.974761e+002,1.996928e+002
3.994046e+002,1.989902e+002
4.013331e+002,1.994951e+002
4.032615e+002,1.998363e+002
4.051900e+002,2.022941e+002
4.071185e+002,2.099857e+002
4.090469e+002,2.264420e+002
4.109754e+002,2.379351e+002
4.129039e+002,2.392499e+002
4.148323e+002,2.321898e+002
4.167608e+002,2.282066e+002
4.186893e+002,2.306647e+002
4.206177e+002,2.328317e+002
4.225462e+002,2.310524e+002
4.244747e+002,2.246679e+002
4.264032e+002,2.189205e+002
4.283316e+002,2.128681e+002
4.302601e+002,2.082019e+002
4.321886e+002,2.086373e+002
4.341170e+002,2.173430e+002
4.360455e+002,2.254614e+002
4.379740e+002,2.294901e+002
4.399024e+002,2.299178e+002
4.418309e+002,2.313430e+002
4.437594e+002,2.357411e+002
4.456878e+002,2.401205e+002
4.476163e+002,2.420129e+002
4.495448e+002,2.408029e+002
4.514732e+002,2.396280e+002
4.534017e+002,2.403701e+002
4.553302e+002,2.416546e+002
4.572586e+002,2.401257e+002
4.591871e+002,2.300691e+002
4.611156e+002,2.226592e+002
4.630440e+002,2.233148e+002
4.649725e+002,2.318146e+002
4.669010e+002,2.377347e+002
4.688294e+002,2.366157e+002
4.707579e+002,2.341959e+002
4.726864e+002,2.350120e+002
4.746148e+002,2.437952e+002
4.765433e+002,2.501089e+002
4.784718e+002,2.501749e+002
4.804002e+002,2.471151e+002
4.823287e+002,2.492564e+002
4.842572e+002,2.622478e+002
4.861856e+002,2.736767e+002
4.881141e+002,2.781015e+002
4.900426e+002,2.730780e+002
4.919710e+002,2.692692e+002
4.938995e+002,2.657986e+002
4.958280e+002,2.641819e+002
4.977564e+002,2.664711e+002
4.996849e+002,2.749415e+002
5.016134e+002,2.806123e+002
5.035418e+002,2.799858e+002
5.054703e+002,2.746080e+002
5.073988e+002,2.708754e+002
5.093272e+002,2.682671e+002
5.112557e+002,2.673660e+002
5.131842e+002,2.691436e+002
5.151127e+002,2.733528e+002
5.170411e+002,2.771359e+002
5.189696e+002,2.814514e+002
5.208981e+002,2.843820e+002
5.228265e+002,2.839552e+002
5.247550e+002,2.787538e+002
5.266835e+002,2.733255e+002
5.286119e+002,2.674442e+002
5.305404e+002,2.619208e+002
5.324689e+002,2.580817e+002
5.343973e+002,2.561524e+002
5.363258e+002,2.559582e+002
5.382543e+002,2.579029e+002
5.401827e+002,2.621454e+002
5.421112e+002,2.659404e+002
5.440397e+002,2.700000e+002
5.459681e+002,2.726889e+002
5.478966e+002,2.729826e+002
5.498251e+002,2.701053e+002
5.517535e+002,2.674896e+002
5.536820e+002,2.643917e+002
5.556105e+002,2.622910e+002
5.575389e+002,2.640482e+002
5.594674e+002,2.713914e+002
5.613959e+002,2.787503e+002
5.633243e+002,2.851025e+002
5.652528e+002,2.904279e+002
5.671813e+002,2.938255e+002
5.691097e+002,2.936264e+002
5.710382e+002,2.927240e+002
5.729667e+002,2.906865e+002
5.748951e+002,2.870547e+002
5.768236e+002,2.883193e+002
5.787521e+002,2.991071e+002
5.806805e+002,3.125175e+002
5.826090e+002,3.237578e+002
5.845375e+002,3.343257e+002
5.864659e+002,3.388436e+002
5.883944e+002,3.360424e+002
5.903229e+002,3.272153e+002
5.922513e+002,3.142246e+002
5.941798e+002,2.932636e+002
5.961083e+002,2.763237e+002
5.980367e+002,2.687821e+002
5.999652e+002,2.697007e+002
6.018937e+002,2.706727e+002
6.038221e+002,2.685868e+002
6.057506e+002,2.692061e+002
6.076791e+002,2.764555e+002
6.096075e+002,2.902762e+002
6.115360e+002,3.032035e+002
6.134645e+002,3.170551e+002
6.153929e+002,3.272080e+002
6.173214e+002,3.304610e+002
6.192499e+002,3.247134e+002
6.211783e+002,3.154603e+002
6.231068e+002,2.991765e+002
6.250353e+002,2.812534e+002
6.269637e+002,2.703843e+002
6.288922e+002,2.690563e+002
6.308207e+002,2.680235e+002
6.327491e+002,2.626099e+002
6.346776e+002,2.544616e+002
6.366061e+002,2.510905e+002
6.385345e+002,2.556747e+002
6.404630e+002,2.615409e+002
6.423915e+002,2.683679e+002
6.443199e+002,2.755015e+002
6.462484e+002,2.780996e+002
6.481769e+002,2.714038e+002
6.501053e+002,2.644454e+002
6.520338e+002,2.624223e+002
6.539623e+002,2.677536e+002
6.558907e+002,2.715353e+002
6.578192e+002,2.725048e+002
6.597477e+002,2.726693e+002
6.616761e+002,2.739264e+002
6.636046e+002,2.763940e+002
6.655331e+002,2.787581e+002
6.674615e+002,2.802323e+002
6.693900e+002,2.815399e+002
6.713185e+002,2.836783e+002
6.732469e+002,2.899678e+002
6.751754e+002,2.932809e+002
6.771039e+002,2.902506e+002
6.790323e+002,2.836874e+002
6.809608e+002,2.810980e+002
6.828893e+002,2.839043e+002
6.848177e+002,2.882938e+002
6.867462e+002,2.918994e+002
6.886747e+002,2.948129e+002
6.906031e+002,3.018332e+002
6.925316e+002,3.200156e+002
6.944601e+002,3.354899e+002
6.963885e+002,3.424180e+002
6.983170e+002,3.410141e+002
7.002455e+002,3.353369e+002
7.021740e+002,3.214275e+002
7.041024e+002,3.073603e+002
7.060309e+002,2.977667e+002
7.079594e+002,2.937652e+002
7.098878e+002,2.907746e+002
7.118163e+002,2.885110e+002
7.137448e+002,2.870148e+002
7.156732e+002,2.861462e+002
7.176017e+002,2.855871e+002
7.195302e+002,2.871123e+002
7.214586e+002,2.887366e+002
7.233871e+002,2.942437e+002
7.253156e+002,3.085086e+002
7.272440e+002,3.403228e+002
7.291725e+002,3.663723e+002
7.311010e+002,3.814082e+002
7.330294e+002,3.900992e+002
7.349579e+002,3.981871e+002
7.368864e+002,3.989108e+002
7.388149e+002,4.139545e+002
7.407433e+002,4.648589e+002
7.426718e+002,5.342103e+002
7.446003e+002,5.837493e+002
7.465287e+002,6.145016e+002
7.484572e+002,6.209276e+002
7.503857e+002,5.893597e+002
7.523141e+002,5.291015e+002
7.542426e+002,4.811833e+002
7.561711e+002,4.501869e+002
7.580995e+002,4.240518e+002
7.600280e+002,3.962856e+002
7.619565e+002,3.682142e+002
7.638849e+002,3.489771e+002
7.658134e+002,3.455840e+002
7.677419e+002,3.449533e+002
7.696703e+002,3.450818e+002
7.715988e+002,3.456363e+002
7.735273e+002,3.412396e+002
7.754557e+002,3.264287e+002
7.773842e+002,3.126579e+002
7.793127e+002,3.065410e+002
7.812411e+002,3.075237e+002
7.831696e+002,3.073534e+002
7.850981e+002,3.018460e+002
7.870266e+002,2.981748e+002
7.889550e+002,3.008314e+002
7.908835e+002,3.114912e+002
7.928120e+002,3.183647e+002
7.947404e+002,3.202155e+002
7.966689e+002,3.192910e+002
7.985974e+002,3.152388e+002
8.005258e+002,3.078635e+002
8.024543e+002,3.041005e+002
8.043828e+002,3.082629e+002
8.063112e+002,3.136649e+002
8.082397e+002,3.167858e+002
8.101682e+002,3.168811e+002
8.120966e+002,3.164136e+002
8.140251e+002,3.135071e+002
8.159536e+002,3.115684e+002
8.178820e+002,3.126357e+002
8.198105e+002,3.166221e+002
8.217390e+002,3.238649e+002
8.236674e+002,3.390976e+002
8.255959e+002,3.545356e+002
8.275244e+002,3.653468e+002
8.294528e+002,3.693325e+002
8.313813e+002,3.740735e+002
8.333098e+002,3.814760e+002
8.352382e+002,3.881449e+002
8.371667e+002,3.906174e+002
8.390952e+002,3.887858e+002
8.410236e+002,3.876869e+002
8.429521e+002,3.880688e+002
8.448806e+002,3.897602e+002
8.468090e+002,3.926744e+002
8.487375e+002,3.968707e+002
8.506660e+002,4.023308e+002
8.525944e+002,4.055877e+002
8.545229e+002,4.123473e+002
8.564514e+002,4.283182e+002
8.583798e+002,4.535367e+002
8.603083e+002,4.810861e+002
8.622368e+002,5.213568e+002
8.641652e+002,5.529474e+002
8.660937e+002,5.625770e+002
8.680222e+002,5.478172e+002
8.699506e+002,5.209251e+002
8.718791e+002,4.688722e+002
8.738076e+002,4.171687e+002
8.757360e+002,3.834211e+002
8.776645e+002,3.698260e+002
8.795930e+002,3.571793e+002
8.815214e+002,3.426092e+002
8.834499e+002,3.306905e+002
8.853784e+002,3.245277e+002
8.873068e+002,3.241382e+002
8.892353e+002,3.245541e+002
8.911638e+002,3.247435e+002
8.930922e+002,3.258359e+002
8.950207e+002,3.293154e+002
8.969492e+002,3.356637e+002
8.988776e+002,3.380723e+002
9.008061e+002,3.321637e+002
9.027346e+002,3.264673e+002
9.046630e+002,3.258839e+002
9.065915e+002,3.293618e+002
9.085200e+002,3.321261e+002
9.104484e+002,3.324467e+002
9.123769e+002,3.341360e+002
9.143054e+002,3.411816e+002
9.162338e+002,3.531914e+002
9.181623e+002,3.574115e+002
9.200908e+002,3.456252e+002
9.220192e+002,3.358492e+002
9.239477e+002,3.356945e+002
9.258762e+002,3.422159e+002
9.278046e+002,3.445602e+002
9.297331e+002,3.388901e+002
9.316616e+002,3.350032e+002
9.335900e+002,3.383837e+002
9.355185e+002,3.462233e+002
9.374470e+002,3.507582e+002
9.393754e+002,3.498690e+002
9.413039e+002,3.482703e+002
9.432324e+002,3.455116e+002
9.451608e+002,3.428804e+002
9.470893e+002,3.433690e+002
9.490178e+002,3.484573e+002
9.509462e+002,3.524668e+002
9.528747e+002,3.548495e+002
9.548032e+002,3.550132e+002
9.567316e+002,3.513938e+002
9.586601e+002,3.418181e+002
9.605886e+002,3.359345e+002
9.625170e+002,3.367645e+002
9.644455e+002,3.408054e+002
9.663740e+002,3.451748e+002
9.683024e+002,3.495479e+002
9.702309e+002,3.551568e+002
9.721594e+002,3.633585e+002
9.740878e+002,3.716907e+002
9.760163e+002,3.792042e+002
9.779448e+002,3.858686e+002
9.798733e+002,3.888792e+002
9.818018e+002,3.840280e+002
9.837302e+002,3.797824e+002
9.856587e+002,3.764319e+002
9.875872e+002,3.736674e+002
9.895156e+002,3.880486e+002
9.914441e+002,4.238729e+002
9.933726e+002,4.709477e+002
9.953010e+002,5.440284e+002
9.972295e+002,6.281321e+002
9.991580e+002,6.704784e+002
1.001086e+003,6.645659e+002
1.003015e+003,6.334507e+002
1.004943e+003,5.629042e+002
1.006872e+003,4.779283e+002
1.008800e+003,4.181898e+002
1.010729e+003,3.907499e+002
1.012657e+003,3.729994e+002
1.014586e+003,3.635916e+002
1.016514e+003,3.591586e+002
1.018443e+003,3.566938e+002
1.020371e+003,3.577133e+002
1.022300e+003,3.569862e+002
1.024228e+003,3.513037e+002
1.026156e+003,3.464049e+002
1.028085e+003,3.468661e+002
1.030013e+003,3.522010e+002
1.031942e+003,3.588329e+002
1.033870e+003,3.713343e+002
1.035799e+003,3.783322e+002
1.037727e+003,3.709329e+002
1.039656e+003,3.507833e+002
1.041584e+003,3.401094e+002
1.043513e+003,3.441339e+002
1.045441e+003,3.516276e+002
1.047370e+003,3.639049e+002
1.049298e+003,3.777000e+002
1.051227e+003,3.846697e+002
1.053155e+003,3.824847e+002
1.055083e+003,3.812869e+002
1.057012e+003,3.834288e+002
1.058940e+003,3.879520e+002
1.060869e+003,3.953281e+002
1.062797e+003,4.068743e+002
1.064726e+003,4.123248e+002
1.066654e+003,4.039198e+002
1.068583e+003,3.937084e+002
1.070511e+003,3.884587e+002
1.072440e+003,3.887622e+002
1.074368e+003,3.869770e+002
1.076297e+003,3.820474e+002
1.078225e+003,3.767486e+002
1.080154e+003,3.704384e+002
1.082082e+003,3.649110e+002
1.084010e+003,3.643759e+002
1.085939e+003,3.697031e+002
1.087867e+003,3.781177e+002
1.089796e+003,3.920224e+002
1.091724e+003,4.068877e+002
1.093653e+003,4.169795e+002
1.095581e+003,4.205470e+002
1.097510e+003,4.240453e+002
1.099438e+003,4.265665e+002
1.101367e+003,4.303740e+002
1.103295e+003,4.379229e+002
1.105224e+003,4.498008e+002
1.107152e+003,4.593129e+002
1.109081e+003,4.728121e+002
1.111009e+003,4.777580e+002
1.112938e+003,4.644780e+002
1.114866e+003,4.397752e+002
1.116794e+003,4.184966e+002
1.118723e+003,3.998601e+002
1.120651e+003,3.874093e+002
1.122580e+003,3.855849e+002
1.124508e+003,3.885117e+002
1.126437e+003,3.906366e+002
1.128365e+003,3.913428e+002
1.130294e+003,3.933996e+002
1.132222e+003,3.990316e+002
1.134151e+003,4.042769e+002
1.136079e+003,4.067027e+002
1.138008e+003,4.064966e+002
1.139936e+003,4.066756e+002
1.141865e+003,4.059616e+002
1.143793e+003,4.071756e+002
1.145721e+003,4.124969e+002
1.147650e+003,4.196197e+002
1.149578e+003,4.261614e+002
1.151507e+003,4.331976e+002
1.153435e+003,4.341468e+002
1.155364e+003,4.215062e+002
1.157292e+003,4.072870e+002
1.159221e+003,3.994154e+002
1.161149e+003,3.989858e+002
1.163078e+003,3.980336e+002
1.165006e+003,3.954595e+002
1.166935e+003,3.939216e+002
1.168863e+003,3.957776e+002
1.170792e+003,3.992350e+002
1.172720e+003,3.985082e+002
1.174648e+003,3.905514e+002
1.176577e+003,3.864993e+002
1.178505e+003,3.913523e+002
1.180434e+003,3.989378e+002
1.182362e+003,4.054349e+002
1.184291e+003,4.107354e+002
1.186219e+003,4.102202e+002
1.188148e+003,3.944493e+002
1.190076e+003,3.852882e+002
1.192005e+003,3.972886e+002
1.193933e+003,4.229278e+002
1.195862e+003,4.368098e+002
1.197790e+003,4.306303e+002
1.199719e+003,4.255585e+002
1.201647e+003,4.241325e+002
1.203575e+003,4.240579e+002
1.205504e+003,4.227194e+002
1.207432e+003,4.195881e+002
1.209361e+003,4.193452e+002
1.211289e+003,4.207160e+002
1.213218e+003,4.265447e+002
1.215146e+003,4.385719e+002
1.217075e+003,4.560818e+002
1.219003e+003,4.802777e+002
1.220932e+003,5.162505e+002
1.222860e+003,5.406186e+002
1.224789e+003,5.439842e+002
1.226717e+003,5.353819e+002
1.228646e+003,5.167479e+002
1.230574e+003,4.859369e+002
1.232502e+003,4.651663e+002
1.234431e+003,4.613280e+002
1.236359e+003,4.599969e+002
1.238288e+003,4.586324e+002
1.240216e+003,4.570762e+002
1.242145e+003,4.552654e+002
1.244073e+003,4.543572e+002
1.246002e+003,4.507926e+002
1.247930e+003,4.405407e+002
1.249859e+003,4.311597e+002
1.251787e+003,4.298648e+002
1.253716e+003,4.343249e+002
1.255644e+003,4.331265e+002
1.257573e+003,4.213248e+002
1.259501e+003,4.131923e+002
1.261429e+003,4.159908e+002
1.263358e+003,4.240523e+002
1.265286e+003,4.324171e+002
1.267215e+003,4.415949e+002
1.269143e+003,4.468344e+002
1.271072e+003,4.465308e+002
1.273000e+003,4.428989e+002
1.274929e+003,4.331535e+002
1.276857e+003,4.205098e+002
1.278786e+003,4.157140e+002
1.280714e+003,4.262422e+002
1.282643e+003,4.342262e+002
1.284571e+003,4.402962e+002
1.286500e+003,4.430530e+002
1.288428e+003,4.380231e+002
1.290356e+003,4.264465e+002
1.292285e+003,4.245825e+002
1.294213e+003,4.374091e+002
1.296142e+003,4.512461e+002
1.298070e+003,4.602715e+002
1.299999e+003,4.682480e+002
1.301927e+003,4.815543e+002
1.303856e+003,5.009032e+002
1.305784e+003,5.118028e+002
1.307713e+003,5.090527e+002
1.309641e+003,5.012199e+002
1.311570e+003,4.836173e+002
1.313498e+003,4.648138e+002
1.315427e+003,4.691660e+002
1.317355e+003,5.098105e+002
1.319283e+003,5.453182e+002
1.321212e+003,5.635234e+002
1.323140e+003,5.839164e+002
1.325069e+003,6.275055e+002
1.326997e+003,6.898292e+002
1.328926e+003,7.213440e+002
1.330854e+003,7.088058e+002
1.332783e+003,6.895836e+002
1.334711e+003,6.602943e+002
1.336640e+003,6.332125e+002
1.338568e+003,6.155109e+002
1.340497e+003,6.079249e+002
1.342425e+003,6.295101e+002
1.344354e+003,7.027541e+002
1.346282e+003,7.659099e+002
1.348210e+003,8.045757e+002
1.350139e+003,8.135269e+002
1.352068e+003,7.786715e+002
1.353996e+003,6.967949e+002
1.355924e+003,6.222864e+002
1.357853e+003,5.585643e+002
1.359781e+003,5.096358e+002
1.361710e+003,4.808311e+002
1.363638e+003,4.661204e+002
1.365567e+003,4.537389e+002
1.367495e+003,4.429201e+002
1.369424e+003,4.369328e+002
1.371352e+003,4.384361e+002
1.373281e+003,4.420406e+002
1.375209e+003,4.503070e+002
1.377138e+003,4.590315e+002
1.379066e+003,4.525312e+002
1.380995e+003,4.140042e+002
1.382923e+003,3.932932e+002
1.384851e+003,4.053899e+002
1.386780e+003,4.246519e+002
1.388708e+003,4.401802e+002
1.390637e+003,4.499285e+002
1.392565e+003,4.446417e+002
1.394494e+003,4.149673e+002
1.396422e+003,4.000568e+002
1.398351e+003,4.226616e+002
1.400279e+003,4.514080e+002
1.402208e+003,4.614628e+002
1.404136e+003,4.590735e+002
1.406065e+003,4.671295e+002
1.407993e+003,4.893505e+002
1.409922e+003,5.143841e+002
1.411850e+003,5.485120e+002
1.413778e+003,5.755442e+002
1.415707e+003,5.835123e+002
1.417635e+003,5.737350e+002
1.419564e+003,5.577554e+002
1.421492e+003,5.305926e+002
1.423421e+003,5.078186e+002
1.425349e+003,4.913576e+002
1.427278e+003,4.805669e+002
1.429206e+003,4.766506e+002
1.431135e+003,4.793015e+002
1.433063e+003,4.794778e+002
1.434992e+003,4.715126e+002
1.436920e+003,4.684984e+002
1.438849e+003,4.744826e+002
1.440777e+003,4.840412e+002
1.442705e+003,4.941898e+002
1.444634e+003,5.048631e+002
1.446562e+003,5.123865e+002
1.448491e+003,5.187642e+002
1.450419e+003,5.192833e+002
1.452348e+003,5.095023e+002
1.454276e+003,4.964571e+002
1.456205e+003,4.842235e+002
1.458133e+003,4.732263e+002
1.460062e+003,4.664453e+002
1.461990e+003,4.642165e+002
1.463919e+003,4.653127e+002
1.465847e+003,4.690902e+002
1.467776e+003,4.764923e+002
1.469704e+003,4.897570e+002
1.471632e+003,5.073698e+002
1.473561e+003,5.254600e+002
1.475489e+003,5.461058e+002
1.477418e+003,5.590978e+002
1.479346e+003,5.624094e+002
1.481275e+003,5.557059e+002
1.483203e+003,5.321019e+002
1.485132e+003,4.979515e+002
1.487060e+003,4.791068e+002
1.488989e+003,4.807934e+002
1.490917e+003,4.819518e+002
1.492846e+003,4.763599e+002
1.494774e+003,4.717853e+002
1.496703e+003,4.730510e+002
1.498631e+003,4.783332e+002
1.500559e+003,4.824579e+002
1.502488e+003,4.864149e+002
1.504416e+003,4.864496e+002
1.506345e+003,4.765918e+002
1.508273e+003,4.692017e+002
1.510202e+003,4.714976e+002
1.512130e+003,4.786760e+002
1.514059e+003,4.813293e+002
1.515987e+003,4.770313e+002
1.517916e+003,4.763074e+002
1.519844e+003,4.819320e+002
1.521773e+003,4.877072e+002
1.523701e+003,4.914924e+002
1.525630e+003,4.945481e+002
1.527558e+003,5.004223e+002
1.529486e+003,5.102756e+002
1.531415e+003,5.086028e+002
1.533343e+003,4.744284e+002
1.535272e+003,4.572485e+002
1.537200e+003,4.753159e+002
1.539129e+003,5.077946e+002
1.541057e+003,5.361556e+002
1.542986e+003,5.619603e+002
1.544914e+003,5.997306e+002
1.546843e+003,6.631980e+002
1.548771e+003,7.043652e+002
1.550700e+003,7.098465e+002
1.552628e+003,6.940173e+002
1.554557e+003,6.477426e+002
1.556485e+003,5.889259e+002
1.558413e+003,5.635490e+002
1.560342e+003,5.741754e+002
1.562270e+003,6.040421e+002
1.564199e+003,6.696481e+002
1.566127e+003,7.260959e+002
1.568056e+003,7.581638e+002
1.569984e+003,7.644200e+002
1.571913e+003,7.380381e+002
1.573841e+003,6.806849e+002
1.575770e+003,6.272879e+002
1.577698e+003,5.782712e+002
1.579627e+003,5.415133e+002
1.581555e+003,5.231892e+002
1.583484e+003,5.157319e+002
1.585412e+003,5.189694e+002
1.587340e+003,5.282405e+002
1.589269e+003,5.197189e+002
1.591197e+003,4.836903e+002
1.593126e+003,4.664601e+002
1.595054e+003,4.963363e+002
1.596983e+003,5.251173e+002
1.598911e+003,5.212851e+002
1.600840e+003,5.010186e+002
1.602768e+003,4.942391e+002
1.604697e+003,5.012916e+002
1.606625e+003,5.185737e+002
1.608554e+003,5.588032e+002
1.610482e+003,5.849995e+002
1.612411e+003,5.765831e+002
1.614339e+003,5.559780e+002
1.616267e+003,5.410992e+002
1.618196e+003,5.314810e+002
1.620124e+003,5.211728e+002
1.622053e+003,5.069489e+002
1.623981e+003,5.015028e+002
1.625910e+003,5.195941e+002
1.627838e+003,5.329356e+002
1.629767e+003,5.206844e+002
1.631695e+003,4.970938e+002
1.633624e+003,4.915870e+002
1.635552e+003,5.074936e+002
1.637481e+003,5.161136e+002
1.639409e+003,5.152933e+002
1.641338e+003,5.077668e+002
1.643266e+003,4.839446e+002
1.645194e+003,4.636379e+002
1.647123e+003,4.674281e+002
1.649051e+003,4.899495e+002
1.650980e+003,4.999430e+002
1.652908e+003,4.929111e+002
1.654837e+003,4.857017e+002
1.656765e+003,4.778553e+002
1.658694e+003,4.725503e+002
1.660622e+003,4.730354e+002
1.662551e+003,4.754657e+002
1.664479e+003,4.738335e+002
1.666408e+003,4.678542e+002
1.668336e+003,4.696942e+002
1.670265e+003,4.872512e+002
1.672193e+003,4.975825e+002
1.674121e+003,4.893117e+002
1.676050e+003,4.821717e+002
1.677978e+003,4.917130e+002
1.679907e+003,5.077918e+002
1.681835e+003,5.060796e+002
1.683764e+003,4.788532e+002
1.685692e+003,4.715016e+002
1.687621e+003,5.084518e+002
1.689549e+003,5.282226e+002
1.691478e+003,5.013405e+002
1.693406e+003,4.709221e+002
1.695335e+003,4.726129e+002
1.697263e+003,4.954469e+002
1.699192e+003,5.003592e+002
1.701120e+003,4.780895e+002
1.703048e+003,4.722755e+002
1.704977e+003,5.067056e+002
1.706905e+003,5.274872e+002
1.708834e+003,5.077386e+002
1.710762e+003,4.801967e+002
1.712691e+003,4.734196e+002
1.714619e+003,4.839308e+002
1.716548e+003,4.930198e+002
1.718476e+003,4.999629e+002
1.720405e+003,5.090472e+002
1.722333e+003,5.322722e+002
1.724262e+003,5.421393e+002
1.726190e+003,5.185057e+002
1.728119e+003,4.874527e+002
1.730047e+003,4.723220e+002
1.731975e+003,4.719170e+002
1.733904e+003,4.785919e+002
1.735832e+003,4.947144e+002
1.737761e+003,5.101549e+002
1.739689e+003,5.338478e+002
1.741618e+003,5.424695e+002
1.743546e+003,5.135618e+002
1.745475e+003,4.782152e+002
1.747403e+003,4.660381e+002
1.749332e+003,4.749344e+002
1.751260e+003,4.939639e+002
1.753189e+003,5.309351e+002
1.755117e+003,5.430948e+002
1.757046e+003,5.028256e+002
1.758974e+003,4.716962e+002
1.760902e+003,4.783898e+002
1.762831e+003,4.987185e+002
1.764759e+003,5.165430e+002
1.766688e+003,5.299612e+002
1.768616e+003,5.259443e+002
1.770545e+003,4.986215e+002
1.772473e+003,4.889178e+002
1.774402e+003,5.165091e+002
1.776330e+003,5.370139e+002
1.778259e+003,5.247075e+002
1.780187e+003,5.058904e+002
1.782116e+003,5.024359e+002
1.784044e+003,5.089669e+002
1.785973e+003,5.101913e+002
1.787901e+003,5.055665e+002
1.789829e+003,5.021853e+002
1.791758e+003,5.015475e+002
1.793686e+003,5.011625e+002
1.795615e+003,5.002348e+002
1.797543e+003,4.992139e+002
1.799472e+003,4.949754e+002
1.801400e+003,4.922188e+002
1.803329e+003,5.026282e+002
1.805257e+003,5.256679e+002
1.807186e+003,5.419785e+002
1.809114e+003,5.508754e+002
1.811043e+003,5.492831e+002
1.812971e+003,5.283806e+002
1.814900e+003,5.063014e+002
1.816828e+003,4.863125e+002
1.818756e+003,4.751528e+002
1.820685e+003,4.913795e+002
1.822613e+003,5.292683e+002
1.824542e+003,5.404489e+002
1.826470e+003,5.138537e+002
1.828399e+003,4.953397e+002
1.830327e+003,4.938121e+002
1.832256e+003,4.989966e+002
1.834184e+003,5.106304e+002
1.836113e+003,5.244545e+002
1.838041e+003,5.391003e+002
1.839970e+003,5.528799e+002
1.841898e+003,5.593544e+002
1.843827e+003,5.588633e+002
1.845755e+003,5.499501e+002
1.847684e+003,5.212394e+002
1.849612e+003,5.004396e+002
1.851541e+003,4.948165e+002
1.853469e+003,4.955404e+002
1.855397e+003,4.989857e+002
1.857326e+003,5.041263e+002
1.859254e+003,5.081925e+002
1.861183e+003,5.110724e+002
1.863111e+003,5.224826e+002
1.865040e+003,5.542023e+002
1.866968e+003,5.688459e+002
1.868897e+003,5.476564e+002
1.870825e+003,5.313668e+002
1.872754e+003,5.367241e+002
1.874682e+003,5.475967e+002
1.876611e+003,5.532633e+002
1.878539e+003,5.533394e+002
1.880468e+003,5.440146e+002
1.882396e+003,5.242679e+002
1.884324e+003,5.124926e+002
1.886253e+003,5.117699e+002
1.888181e+003,5.135922e+002
1.890110e+003,5.179556e+002
1.892038e+003,5.213932e+002
1.893967e+003,5.219260e+002
1.895895e+003,5.206888e+002
1.897824e+003,5.173389e+002
1.899752e+003,5.133483e+002
1.901681e+003,5.143672e+002
1.903609e+003,5.209983e+002
1.905538e+003,5.256202e+002
1.907466e+003,5.279726e+002
1.909395e+003,5.270603e+002
1.911323e+003,5.202712e+002
1.913251e+003,5.129291e+002
1.915180e+003,5.035217e+002
1.917108e+003,4.979471e+002
1.919037e+003,5.083852e+002
1.920965e+003,5.308248e+002
1.922894e+003,5.406361e+002
1.924822e+003,5.342531e+002
1.926751e+003,5.293726e+002
1.928679e+003,5.291367e+002
1.930608e+003,5.269266e+002
1.932536e+003,5.167814e+002
1.934465e+003,5.099177e+002
1.936393e+003,5.156057e+002
1.938322e+003,5.261081e+002
1.940250e+003,5.312123e+002
1.942178e+003,5.314276e+002
1.944107e+003,5.308130e+002
1.946035e+003,5.282319e+002
1.947964e+003,5.301002e+002
1.949892e+003,5.406530e+002
1.951821e+003,5.482328e+002
1.953749e+003,5.489133e+002
1.955678e+003,5.479534e+002
1.957606e+003,5.479094e+002
1.959535e+003,5.474454e+002
1.961463e+003,5.433748e+002
1.963392e+003,5.376250e+002
1.965320e+003,5.370290e+002
1.967249e+003,5.417546e+002
1.969177e+003,5.472866e+002
1.971105e+003,5.538867e+002
1.973034e+003,5.591831e+002
1.974962e+003,5.639542e+002
1.976891e+003,5.657233e+002
1.978819e+003,5.560226e+002
1.980748e+003,5.495396e+002
1.982676e+003,5.690553e+002
1.984605e+003,5.994981e+002
1.986533e+003,6.003791e+002
1.988462e+003,5.691656e+002
1.990390e+003,5.517376e+002
1.992319e+003,5.581155e+002
1.994247e+003,5.608710e+002
1.996176e+003,5.559340e+002
1.998104e+003,5.532933e+002
2.000032e+003,5.507382e+002
2.001961e+003,5.567328e+002
2.003889e+003,5.916320e+002
2.005818e+003,6.287834e+002
2.007746e+003,6.199774e+002
2.009675e+003,5.750255e+002
2.011603e+003,5.586988e+002
2.013532e+003,5.740709e+002
2.015460e+003,5.854667e+002
2.017389e+003,5.886379e+002
2.019317e+003,5.906171e+002
2.021246e+003,5.904669e+002
2.023174e+003,5.944016e+002
2.025103e+003,6.141338e+002
2.027031e+003,6.307589e+002
2.028959e+003,6.247899e+002
2.030888e+003,6.055352e+002
2.032816e+003,5.885223e+002
2.034745e+003,5.740391e+002
2.036673e+003,5.670746e+002
2.038602e+003,5.672979e+002
2.040530e+003,5.761703e+002
2.042459e+003,6.039458e+002
2.044387e+003,6.247657e+002
2.046316e+003,6.397688e+002
2.048244e+003,6.404106e+002
2.050173e+003,6.082603e+002
2.052101e+003,5.731328e+002
2.054030e+003,5.652123e+002
2.055958e+003,5.748972e+002
2.057886e+003,5.814882e+002
2.059815e+003,5.851783e+002
2.061743e+003,5.875461e+002
2.063672e+003,5.882599e+002
2.065600e+003,5.914153e+002
2.067529e+003,5.997173e+002
2.069457e+003,6.044575e+002
2.071386e+003,6.055886e+002
2.073314e+003,5.990350e+002
2.075243e+003,5.690032e+002
2.077171e+003,5.438806e+002
2.079100e+003,5.577104e+002
2.081028e+003,5.908433e+002
2.082957e+003,6.041661e+002
2.084885e+003,5.992906e+002
2.086813e+003,5.980001e+002
2.088742e+003,6.025512e+002
2.090670e+003,6.029059e+002
2.092599e+003,5.950737e+002
2.094527e+003,5.907407e+002
2.096456e+003,5.956486e+002
2.098384e+003,5.984937e+002
2.100313e+003,5.922390e+002
2.102241e+003,5.862888e+002
2.104170e+003,5.888156e+002
2.106098e+003,5.938070e+002
2.108027e+003,5.926448e+002
2.109955e+003,5.876294e+002
2.111884e+003,5.860473e+002
2.113812e+003,5.879255e+002
2.115740e+003,5.882830e+002
2.117669e+003,5.850948e+002
2.119597e+003,5.863345e+002
2.121526e+003,5.954705e+002
2.123454e+003,6.053488e+002
2.125383e+003,6.203735e+002
2.127311e+003,6.280496e+002
2.129240e+003,6.158171e+002
2.131168e+003,5.994675e+002
2.133097e+003,5.921155e+002
2.135025e+003,5.908621e+002
2.136954e+003,5.920242e+002
2.138882e+003,5.948839e+002
2.140811e+003,5.941600e+002
2.142739e+003,5.899717e+002
2.144667e+003,5.941842e+002
2.146596e+003,6.108958e+002
2.148524e+003,6.215336e+002
2.150453e+003,6.201221e+002
2.152381e+003,6.166674e+002
2.154310e+003,6.118256e+002
2.156238e+003,6.085087e+002
2.158167e+003,6.071849e+002
2.160095e+003,6.091337e+002
2.162024e+003,6.201431e+002
2.163952e+003,6.327910e+002
2.165881e+003,6.317997e+002
2.167809e+003,6.201251e+002
2.169738e+003,6.154796e+002
2.171666e+003,6.178564e+002
2.173594e+003,6.167095e+002
2.175523e+003,6.104506e+002
2.177451e+003,6.057847e+002
2.179380e+003,6.033893e+002
2.181308e+003,6.040837e+002
2.183237e+003,6.123836e+002
2.185165e+003,6.182026e+002
2.187094e+003,6.134813e+002
2.189022e+003,6.094589e+002
2.190951e+003,6.158100e+002
2.192879e+003,6.261646e+002
2.194808e+003,6.331536e+002
2.196736e+003,6.370212e+002
2.198665e+003,6.390918e+002
2.200593e+003,6.390892e+002
2.202521e+003,6.333184e+002
2.204450e+003,6.206563e+002
2.206378e+003,6.171242e+002
2.208307e+003,6.269941e+002
2.210235e+003,6.327683e+002
2.212164e+003,6.304626e+002
2.214092e+003,6.256898e+002
2.216021e+003,6.136565e+002
2.217949e+003,6.086909e+002
2.219878e+003,6.251025e+002
2.221806e+003,6.425544e+002
2.223735e+003,6.442413e+002
2.225663e+003,6.379764e+002
2.227592e+003,6.309501e+002
2.229520e+003,6.251376e+002
2.231448e+003,6.281451e+002
2.233377e+003,6.387753e+002
2.235305e+003,6.442689e+002
2.237234e+003,6.446262e+002
2.239162e+003,6.438530e+002
2.241091e+003,6.419010e+002
2.243019e+003,6.426616e+002
2.244948e+003,6.501790e+002
2.246876e+003,6.523231e+002
2.248805e+003,6.378309e+002
2.250733e+003,6.278721e+002
2.252662e+003,6.360563e+002
2.254590e+003,6.440735e+002
2.256519e+003,6.383914e+002
2.258447e+003,6.293152e+002
2.260375e+003,6.253109e+002
2.262304e+003,6.262305e+002
2.264232e+003,6.345742e+002
2.266161e+003,6.469219e+002
2.268089e+003,6.527976e+002
2.270018e+003,6.522986e+002
2.271946e+003,6.472071e+002
2.273875e+003,6.363732e+002
2.275803e+003,6.322540e+002
2.277732e+003,6.407590e+002
2.279660e+003,6.448577e+002
2.281589e+003,6.388317e+002
2.283517e+003,6.360192e+002
2.285446e+003,6.399078e+002
2.287374e+003,6.454926e+002
2.289302e+003,6.552081e+002
2.291231e+003,6.607974e+002
2.293159e+003,6.527891e+002
2.295088e+003,6.435587e+002
2.297016e+003,6.441730e+002
2.298945e+003,6.496272e+002
2.300873e+003,6.544263e+002
2.302802e+003,6.583548e+002
2.304730e+003,6.613784e+002
2.306659e+003,6.631569e+002
2.308587e+003,6.595254e+002
2.310516e+003,6.486462e+002
2.312444e+003,6.498010e+002
2.314373e+003,6.667705e+002
2.316301e+003,6.729920e+002
2.318229e+003,6.641085e+002
2.320158e+003,6.538416e+002
2.322086e+003,6.421296e+002
2.324015e+003,6.367687e+002
2.325943e+003,6.440203e+002
2.327872e+003,6.526636e+002
2.329800e+003,6.594293e+002
2.331729e+003,6.650115e+002
2.333657e+003,6.698951e+002
2.335586e+003,6.732192e+002
2.337514e+003,6.738416e+002
2.339443e+003,6.724556e+002
2.341371e+003,6.689026e+002
2.343300e+003,6.645311e+002
2.345228e+003,6.621652e+002
2.347156e+003,6.614465e+002
2.349085e+003,6.615492e+002
2.351013e+003,6.624792e+002
2.352942e+003,6.616885e+002
2.354870e+003,6.587312e+002
2.356799e+003,6.583627e+002
2.358727e+003,6.616003e+002
2.360656e+003,6.647295e+002
2.362584e+003,6.678151e+002
2.364513e+003,6.695955e+002
2.366441e+003,6.694350e+002
2.368370e+003,6.686336e+002
2.370298e+003,6.684486e+002
2.372227e+003,6.657402e+002
2.374155e+003,6.547905e+002
2.376083e+003,6.469633e+002
2.378012e+003,6.494302e+002
2.379940e+003,6.556396e+002
2.381869e+003,6.651171e+002
2.383797e+003,6.718322e+002
2.385726e+003,6.661033e+002
2.387654e+003,6.567177e+002
2.389583e+003,6.568232e+002
2.391511e+003,6.623157e+002
2.393440e+003,6.656929e+002
2.395368e+003,6.671342e+002
2.397297e+003,6.671964e+002
2.399225e+003,6.659261e+002
2.401154e+003,6.643340e+002
2.403082e+003,6.617013e+002
2.405010e+003,6.644760e+002
2.406939e+003,6.747404e+002
2.408867e+003,6.802147e+002
2.410796e+003,6.804670e+002
2.412724e+003,6.735076e+002
2.414653e+003,6.526818e+002
2.416581e+003,6.480128e+002
2.418510e+003,6.796842e+002
2.420438e+003,7.021813e+002
2.422367e+003,6.945247e+002
2.424295e+003,6.878251e+002
2.426224e+003,6.988201e+002
2.428152e+003,7.044295e+002
2.430081e+003,6.871255e+002
2.432009e+003,6.707960e+002
2.433938e+003,6.695851e+002
2.435866e+003,6.749114e+002
2.437794e+003,6.842034e+002
2.439723e+003,6.924009e+002
2.441651e+003,6.898487e+002
2.443580e+003,6.851835e+002
2.445508e+003,6.959860e+002
2.447437e+003,7.125306e+002
2.449365e+003,7.103365e+002
2.451294e+003,6.954415e+002
2.453222e+003,6.882175e+002
2.455151e+003,6.893698e+002
2.457079e+003,7.093156e+002
2.459008e+003,7.447236e+002
2.460936e+003,7.483537e+002
2.462865e+003,7.134802e+002
2.464793e+003,6.917951e+002
2.466721e+003,6.853696e+002
2.468650e+003,6.857595e+002
2.470578e+003,6.949840e+002
2.472507e+003,7.012858e+002
2.474435e+003,7.025230e+002
2.476364e+003,7.045076e+002
2.478292e+003,7.097869e+002
2.480221e+003,7.115315e+002
2.482149e+003,7.053554e+002
2.484078e+003,7.003690e+002
2.486006e+003,7.012206e+002
2.487935e+003,7.000449e+002
2.489863e+003,6.891311e+002
2.491792e+003,6.835254e+002
2.493720e+003,6.930804e+002
2.495648e+003,7.021667e+002
2.497577e+003,7.020240e+002
2.499505e+003,6.986337e+002
2.501434e+003,6.961746e+002
2.503362e+003,6.921734e+002
2.505291e+003,6.817809e+002
2.507219e+003,6.720684e+002
2.509148e+003,6.686207e+002
2.511076e+003,6.715730e+002
2.513005e+003,6.859366e+002
2.514933e+003,7.029484e+002
2.516862e+003,7.111290e+002
2.518790e+003,7.120450e+002
2.520719e+003,7.058002e+002
2.522647e+003,6.958512e+002
2.524575e+003,6.900398e+002
2.526504e+003,6.889398e+002
2.528432e+003,6.981808e+002
2.530361e+003,7.145960e+002
2.532289e+003,7.189704e+002
2.534218e+003,7.129617e+002
2.536146e+003,7.096324e+002
2.538075e+003,7.092416e+002
2.540003e+003,7.035093e+002
2.541932e+003,6.907018e+002
2.543860e+003,6.895119e+002
2.545789e+003,7.029114e+002
2.547717e+003,7.097374e+002
2.549646e+003,7.093105e+002
2.551574e+003,7.026679e+002
2.553502e+003,6.873527e+002
2.555431e+003,6.850610e+002
2.557359e+003,7.067130e+002
2.559288e+003,7.176171e+002
2.561216e+003,7.041318e+002
2.563145e+003,7.005596e+002
2.565073e+003,7.156315e+002
2.567002e+003,7.203924e+002
2.568930e+003,7.056237e+002
2.570859e+003,6.944529e+002
2.572787e+003,6.917656e+002
2.574716e+003,6.958831e+002
2.576644e+003,7.154230e+002
2.578573e+003,7.267680e+002
2.580501e+003,7.193205e+002
2.582429e+003,7.091506e+002
2.584358e+003,6.953718e+002
2.586287e+003,6.893900e+002
2.588215e+003,7.029704e+002
2.590144e+003,7.128417e+002
2.592072e+003,7.039188e+002
2.594000e+003,6.955147e+002
2.595929e+003,7.004364e+002
2.597857e+003,7.038235e+002
2.599786e+003,6.903289e+002
2.601714e+003,6.825835e+002
2.603643e+003,7.001142e+002
2.605571e+003,7.168046e+002
2.607500e+003,7.106202e+002
2.609428e+003,7.027516e+002
2.611357e+003,7.137197e+002
2.613285e+003,7.240030e+002
2.615214e+003,7.142516e+002
2.617142e+003,7.005370e+002
2.619071e+003,6.947996e+002
2.620999e+003,6.936710e+002
2.622927e+003,6.956012e+002
2.624856e+003,6.991973e+002
2.626784e+003,7.037078e+002
2.628713e+003,7.085257e+002
2.630641e+003,7.139600e+002
2.632570e+003,7.185053e+002
2.634498e+003,7.213087e+002
2.636427e+003,7.212719e+002
2.638355e+003,7.154033e+002
2.640284e+003,7.073999e+002
2.642212e+003,6.984390e+002
2.644141e+003,6.933287e+002
2.646069e+003,7.045242e+002
2.647998e+003,7.203199e+002
2.649926e+003,7.216754e+002
2.651854e+003,7.143518e+002
2.653783e+003,7.028207e+002
2.655711e+003,6.932678e+002
2.657640e+003,6.992696e+002
2.659568e+003,7.119672e+002
2.661497e+003,7.162543e+002
2.663425e+003,7.140582e+002
2.665354e+003,7.040098e+002
2.667282e+003,6.931257e+002
2.669211e+003,7.001866e+002
2.671139e+003,7.150972e+002
2.673068e+003,7.178989e+002
2.674996e+003,7.136378e+002
2.676925e+003,7.144798e+002
2.678853e+003,7.167339e+002
2.680781e+003,7.098705e+002
2.682710e+003,6.983453e+002
2.684638e+003,6.915889e+002
2.686567e+003,6.892971e+002
2.688495e+003,6.905162e+002
2.690424e+003,6.953268e+002
2.692352e+003,7.088254e+002
2.694281e+003,7.237473e+002
2.696209e+003,7.135389e+002
2.698138e+003,6.928894e+002
2.700066e+003,7.054648e+002
2.701995e+003,7.338793e+002
2.703923e+003,7.367300e+002
2.705852e+003,7.259326e+002
2.707780e+003,7.342585e+002
2.709708e+003,7.504155e+002
2.711637e+003,7.409730e+002
2.713565e+003,7.199126e+002
2.715494e+003,7.261594e+002
2.717422e+003,7.430725e+002
2.719351e+003,7.337322e+002
2.721279e+003,7.117974e+002
2.723208e+003,7.057833e+002
2.725136e+003,7.098077e+002
2.727065e+003,7.144336e+002
2.728993e+003,7.172915e+002
2.730922e+003,7.073615e+002
2.732850e+003,6.960790e+002
2.734779e+003,7.091347e+002
2.736707e+003,7.309587e+002
2.738635e+003,7.296585e+002
2.740564e+003,7.191478e+002
2.742492e+003,7.283848e+002
2.744421e+003,7.423232e+002
2.746349e+003,7.347875e+002
2.748278e+003,7.203019e+002
2.750206e+003,7.201979e+002
2.752135e+003,7.260580e+002
2.754063e+003,7.258350e+002
2.755992e+003,7.236458e+002
2.757920e+003,7.288403e+002
2.759849e+003,7.316703e+002
2.761777e+003,7.142051e+002
2.763706e+003,6.964499e+002
2.765634e+003,7.041503e+002
2.767563e+003,7.206328e+002
2.769491e+003,7.328771e+002
2.771419e+003,7.390101e+002
2.773348e+003,7.331671e+002
2.775276e+003,7.251781e+002
2.777205e+003,7.220753e+002
2.779133e+003,7.221435e+002
2.781062e+003,7.254871e+002
2.782990e+003,7.292686e+002
2.784919e+003,7.299183e+002
2.786847e+003,7.318720e+002
2.788776e+003,7.437331e+002
2.790704e+003,7.498694e+002
2.792633e+003,7.379257e+002
2.794561e+003,7.217060e+002
2.796490e+003,6.976804e+002
2.798418e+003,6.902081e+002
2.800346e+003,7.227880e+002
2.802275e+003,7.502772e+002
2.804203e+003,7.502979e+002
2.806132e+003,7.409238e+002
2.808060e+003,7.130209e+002
2.809989e+003,7.035803e+002
2.811917e+003,7.353643e+002
2.813846e+003,7.583737e+002
2.815774e+003,7.528545e+002
2.817703e+003,7.483937e+002
2.819631e+003,7.572966e+002
2.821560e+003,7.631164e+002
2.823488e+003,7.618842e+002
2.825417e+003,7.612141e+002
2.827345e+003,7.617180e+002
2.829273e+003,7.652628e+002
2.831202e+003,7.719932e+002
2.833130e+003,7.827160e+002
2.835059e+003,7.976280e+002
2.836987e+003,8.144650e+002
2.838916e+003,8.313380e+002
2.840844e+003,8.680020e+002
2.842773e+003,9.301761e+002
2.844701e+003,9.469781e+002
2.846630e+003,9.024542e+002
2.848558e+003,8.870767e+002
2.850487e+003,9.028574e+002
2.852415e+003,9.048359e+002
2.854344e+003,8.938190e+002
2.856272e+003,8.841755e+002
2.858200e+003,8.751765e+002
2.860129e+003,8.545004e+002
2.862057e+003,8.255042e+002
2.863986e+003,8.068242e+002
2.865914e+003,7.976253e+002
2.867843e+003,8.000750e+002
2.869771e+003,8.073649e+002
2.871700e+003,8.029698e+002
2.873628e+003,7.931167e+002
2.875557e+003,7.907872e+002
2.877485e+003,7.905565e+002
2.879414e+003,7.809122e+002
2.881342e+003,7.720273e+002
2.883271e+003,7.781961e+002
2.885199e+003,7.877525e+002
2.887127e+003,7.784541e+002
2.889056e+003,7.805052e+002
2.890984e+003,8.291010e+002
2.892913e+003,8.821695e+002
2.894841e+003,9.152563e+002
2.896770e+003,9.420285e+002
2.898698e+003,9.728755e+002
2.900627e+003,9.936696e+002
2.902555e+003,1.003479e+003
2.904484e+003,9.927271e+002
2.906412e+003,9.469948e+002
2.908341e+003,9.087490e+002
2.910269e+003,8.939922e+002
2.912198e+003,8.809842e+002
2.914126e+003,8.633380e+002
2.916054e+003,8.616428e+002
2.917983e+003,8.795020e+002
2.919911e+003,9.072921e+002
2.921840e+003,9.508235e+002
2.923768e+003,9.727153e+002
2.925697e+003,9.711764e+002
2.927625e+003,9.605058e+002
2.929554e+003,9.428284e+002
2.931482e+003,9.402819e+002
2.933411e+003,9.508049e+002
2.935339e+003,9.528929e+002
2.937268e+003,9.491862e+002
2.939196e+003,9.505284e+002
2.941125e+003,9.562990e+002
2.943053e+003,9.711732e+002
2.944981e+003,9.844670e+002
2.946910e+003,9.754655e+002
2.948838e+003,9.575388e+002
2.950767e+003,9.491970e+002
2.952695e+003,9.396161e+002
2.954624e+003,9.139690e+002
2.956552e+003,8.907579e+002
2.958481e+003,8.820131e+002
2.960409e+003,8.817856e+002
2.962338e+003,8.927764e+002
2.964266e+003,9.011827e+002
2.966195e+003,8.983706e+002
2.968123e+003,9.015796e+002
2.970052e+003,9.326653e+002
2.971980e+003,9.375062e+002
2.973908e+003,8.992111e+002
2.975837e+003,8.741300e+002
2.977765e+003,8.706782e+002
2.979694e+003,8.661194e+002
2.981622e+003,8.584382e+002
2.983551e+003,8.417670e+002
2.985479e+003,8.158460e+002
2.987408e+003,8.069787e+002
2.989336e+003,8.112745e+002
2.991265e+003,8.027640e+002
2.993193e+003,7.880305e+002
2.995122e+003,7.938740e+002
2.997050e+003,8.079935e+002
2.998979e+003,8.001154e+002
3.000907e+003,7.875486e+002
3.002835e+003,7.924713e+002
3.004764e+003,8.030218e+002
3.006692e+003,8.107424e+002
3.008621e+003,8.139626e+002
3.010549e+003,8.075740e+002
3.012478e+003,8.035437e+002
3.014406e+003,8.040721e+002
3.016335e+003,8.150405e+002
3.018263e+003,8.488202e+002
3.020192e+003,8.741732e+002
3.022120e+003,8.860901e+002
3.024049e+003,8.923369e+002
3.025977e+003,8.939001e+002
3.027906e+003,8.878154e+002
3.029834e+003,8.700385e+002
3.031762e+003,8.754650e+002
3.033691e+003,9.042105e+002
3.035619e+003,9.543400e+002
3.037548e+003,1.023756e+003
3.039476e+003,1.104137e+003
3.041405e+003,1.198825e+003
3.043333e+003,1.331727e+003
3.045262e+003,1.468758e+003
3.047190e+003,1.603626e+003
3.049119e+003,1.667632e+003
3.051047e+003,1.553610e+003
3.052976e+003,1.387493e+003
3.054904e+003,1.222701e+003
3.056833e+003,1.082746e+003
3.058761e+003,9.725626e+002
3.060689e+003,9.029623e+002
3.062618e+003,8.934800e+002
3.064546e+003,8.852587e+002
3.066475e+003,8.706156e+002
3.068403e+003,8.655901e+002
3.070332e+003,8.739276e+002
3.072260e+003,8.860986e+002
3.074189e+003,9.014098e+002
3.076117e+003,9.039669e+002
3.078046e+003,8.931185e+002
3.079974e+003,8.601186e+002
3.081903e+003,8.222189e+002
3.083831e+003,8.275067e+002
3.085760e+003,8.442599e+002
3.087688e+003,8.250278e+002
3.089616e+003,8.029224e+002
3.091545e+003,8.078627e+002
3.093473e+003,8.153367e+002
3.095402e+003,8.116354e+002
3.097330e+003,8.057468e+002
3.099259e+003,7.971936e+002
3.101187e+003,7.943129e+002
3.103116e+003,8.031572e+002
3.105044e+003,8.091467e+002
3.106973e+003,8.118315e+002
3.108901e+003,8.121367e+002
3.110830e+003,8.108434e+002
3.112758e+003,8.179236e+002
3.114687e+003,8.303974e+002
3.116615e+003,8.339654e+002
3.118543e+003,8.301492e+002
3.120472e+003,8.141473e+002
3.122400e+003,8.022769e+002
3.124329e+003,8.292751e+002
3.126257e+003,8.481169e+002
3.128186e+003,8.137891e+002
3.130114e+003,7.815206e+002
3.132043e+003,7.795880e+002
3.133971e+003,7.803605e+002
3.135900e+003,7.753295e+002
3.137828e+003,7.798234e+002
3.139757e+003,7.978985e+002
3.141685e+003,7.893672e+002
3.143614e+003,7.472334e+002
3.145542e+003,7.546338e+002
3.147470e+003,7.985380e+002
3.149399e+003,7.824008e+002
3.151327e+003,7.414164e+002
3.153256e+003,7.475860e+002
3.155184e+003,7.723195e+002
3.157113e+003,7.891462e+002
3.159041e+003,7.934937e+002
3.160970e+003,7.717450e+002
3.162898e+003,7.545629e+002
3.164827e+003,7.604619e+002
3.166755e+003,7.645323e+002
3.168684e+003,7.636689e+002
3.170612e+003,7.562192e+002
3.172541e+003,7.408493e+002
3.174469e+003,7.297390e+002
3.176397e+003,7.233773e+002
3.178326e+003,7.324392e+002
3.180254e+003,7.507239e+002
3.182183e+003,7.613405e+002
3.184111e+003,7.663896e+002
3.186040e+003,7.666588e+002
3.187968e+003,7.668503e+002
3.189897e+003,7.741658e+002
3.191825e+003,7.777009e+002
3.193754e+003,7.683927e+002
3.195682e+003,7.606971e+002
3.197611e+003,7.573275e+002
3.199539e+003,7.577117e+002
3.201468e+003,7.621647e+002
3.203396e+003,7.683277e+002
3.205324e+003,7.759135e+002
3.207253e+003,7.764146e+002
3.209181e+003,7.709311e+002
3.211110e+003,7.598849e+002
3.213038e+003,7.490287e+002
3.214967e+003,7.477595e+002
3.216895e+003,7.504786e+002
3.218824e+003,7.563133e+002
3.220752e+003,7.578280e+002
3.222681e+003,7.432476e+002
3.224609e+003,7.398298e+002
3.226538e+003,7.545607e+002
3.228466e+003,7.690097e+002
3.230395e+003,7.813828e+002
3.232323e+003,7.777811e+002
3.234251e+003,7.604473e+002
3.236180e+003,7.513340e+002
3.238108e+003,7.498817e+002
3.240037e+003,7.596975e+002
3.241965e+003,7.688918e+002
3.243894e+003,7.623743e+002
3.245822e+003,7.512928e+002
3.247751e+003,7.365347e+002
3.249679e+003,7.301973e+002
3.251608e+003,7.429034e+002
3.253536e+003,7.502662e+002
3.255465e+003,7.495327e+002
3.257393e+003,7.555340e+002
3.259322e+003,7.684695e+002
3.261250e+003,7.742206e+002
3.263178e+003,7.737180e+002
3.265107e+003,7.664315e+002
3.267035e+003,7.587432e+002
3.268964e+003,7.595146e+002
3.270892e+003,7.615819e+002
3.272821e+003,7.623051e+002
3.274749e+003,7.583657e+002
3.276678e+003,7.439923e+002
3.278606e+003,7.399404e+002
3.280535e+003,7.523853e+002
3.282463e+003,7.544714e+002
3.284392e+003,7.473468e+002
3.286320e+003,7.479016e+002
3.288249e+003,7.532654e+002
3.290177e+003,7.568436e+002
3.292105e+003,7.585669e+002
3.294034e+003,7.581694e+002
3.295962e+003,7.569439e+002
3.297891e+003,7.554179e+002
3.299819e+003,7.534776e+002
3.301748e+003,7.502936e+002
3.303676e+003,7.506649e+002
3.305605e+003,7.565231e+002
3.307533e+003,7.561427e+002
3.309462e+003,7.511545e+002
3.311390e+003,7.526937e+002
3.313319e+003,7.571226e+002
3.315247e+003,7.596663e+002
3.317176e+003,7.593677e+002
3.319104e+003,7.524419e+002
3.321032e+003,7.484706e+002
3.322961e+003,7.556018e+002
3.324889e+003,7.585928e+002
3.326818e+003,7.546562e+002
3.328746e+003,7.519797e+002
3.330675e+003,7.513979e+002
3.332603e+003,7.582360e+002
3.334532e+003,7.679379e+002
3.336460e+003,7.650339e+002
3.338389e+003,7.597809e+002
3.340317e+003,7.657696e+002
3.342246e+003,7.699702e+002
3.344174e+003,7.626405e+002
3.346103e+003,7.591310e+002
3.348031e+003,7.632185e+002
3.349959e+003,7.716205e+002
3.351888e+003,7.843909e+002
3.353816e+003,7.945067e+002
3.355745e+003,8.001838e+002
3.357673e+003,7.939319e+002
3.359602e+003,7.842982e+002
3.361530e+003,7.791403e+002
3.363459e+003,7.814117e+002
3.365387e+003,7.991761e+002
3.367316e+003,8.113237e+002
3.369244e+003,8.083466e+002
3.371173e+003,8.176688e+002
3.373101e+003,8.402156e+002
3.375030e+003,8.460129e+002
3.376958e+003,8.421162e+002
3.378886e+003,8.513130e+002
3.380815e+003,8.738220e+002
3.382743e+003,9.070160e+002
3.384672e+003,9.555910e+002
3.386600e+003,1.018679e+003
3.388529e+003,1.108151e+003
3.390457e+003,1.227755e+003
3.392386e+003,1.376999e+003
3.394314e+003,1.555399e+003
3.396243e+003,1.675205e+003
3.398171e+003,1.732088e+003
3.400100e+003,1.718845e+003
3.402028e+003,1.656825e+003
3.403957e+003,1.559540e+003
3.405885e+003,1.435477e+003
3.407813e+003,1.269671e+003
3.409742e+003,1.124365e+003
3.411670e+003,1.007037e+003
3.413599e+003,9.289847e+002
3.415527e+003,8.871945e+002
3.417456e+003,8.546001e+002
3.419384e+003,8.327010e+002
3.421313e+003,8.346002e+002
3.423241e+003,8.367236e+002
3.425170e+003,8.162501e+002
3.427098e+003,8.020285e+002
3.429027e+003,8.031723e+002
3.430955e+003,8.080883e+002
3.432884e+003,8.155084e+002
3.434812e+003,8.245684e+002
3.436740e+003,8.308544e+002
3.438669e+003,8.114977e+002
3.440597e+003,7.885165e+002
3.442526e+003,7.882048e+002
3.444454e+003,7.892394e+002
3.446383e+003,7.798755e+002
3.448311e+003,7.774636e+002
3.450240e+003,7.876547e+002
3.452168e+003,7.957802e+002
3.454097e+003,8.009897e+002
3.456025e+003,8.008734e+002
3.457954e+003,7.963686e+002
3.459882e+003,7.880327e+002
3.461811e+003,7.772241e+002
3.463739e+003,7.613544e+002
3.465667e+003,7.538508e+002
3.467596e+003,7.655192e+002
3.469524e+003,7.661984e+002
3.471453e+003,7.573510e+002
3.473381e+003,7.584996e+002
3.475310e+003,7.632623e+002
3.477238e+003,7.533785e+002
3.479167e+003,7.474844e+002
3.481095e+003,7.658698e+002
3.483024e+003,7.789047e+002
3.484952e+003,7.764047e+002
3.486881e+003,7.738038e+002
3.488809e+003,7.717592e+002
3.490738e+003,7.589382e+002
3.492666e+003,7.474037e+002
3.494594e+003,7.857335e+002
3.496523e+003,8.159715e+002
3.498451e+003,7.736754e+002
3.500380e+003,7.436780e+002
3.502308e+003,7.508842e+002
3.504237e+003,7.596095e+002
3.506165e+003,7.653421e+002
3.508094e+003,7.752106e+002
3.510022e+003,7.828350e+002
3.511951e+003,7.649663e+002
3.513879e+003,7.491566e+002
3.515808e+003,7.693759e+002
3.517736e+003,7.782438e+002
3.519665e+003,7.591299e+002
3.521593e+003,7.535617e+002
3.523521e+003,7.652236e+002
3.525450e+003,7.678771e+002
3.527378e+003,7.658763e+002
3.529307e+003,7.711272e+002
3.531235e+003,7.713260e+002
3.533164e+003,7.508614e+002
3.535092e+003,7.385002e+002
3.537021e+003,7.451147e+002
3.538949e+003,7.552874e+002
3.540878e+003,7.676675e+002
3.542806e+003,7.771724e+002
3.544735e+003,7.803058e+002
3.546663e+003,7.642809e+002
3.548592e+003,7.492199e+002
3.550520e+003,7.454691e+002
3.552448e+003,7.483236e+002
3.554377e+003,7.597508e+002
3.556305e+003,7.574619e+002
3.558234e+003,7.454036e+002
3.560162e+003,7.418151e+002
3.562091e+003,7.443328e+002
3.564019e+003,7.546295e+002
3.565948e+003,7.606705e+002
3.567876e+003,7.512153e+002
3.569805e+003,7.509301e+002
3.571733e+003,7.613032e+002
3.573662e+003,7.550966e+002
3.575590e+003,7.409554e+002
3.577519e+003,7.440153e+002
3.579447e+003,7.521893e+002
3.581376e+003,7.583157e+002
3.583304e+003,7.599843e+002
3.585233e+003,7.548767e+002
3.587161e+003,7.527626e+002
3.589090e+003,7.545041e+002
3.591018e+003,7.667495e+002
3.592947e+003,7.761215e+002
3.594875e+003,7.550201e+002
3.596803e+003,7.352634e+002
3.598732e+003,7.361343e+002
3.600660e+003,7.390259e+002
3.602589e+003,7.421034e+002
3.604517e+003,7.572798e+002
3.606446e+003,7.680115e+002
3.608374e+003,6.924799e+002
3.610303e+003,6.280771e+002
3.612231e+003,6.737617e+002
3.614160e+003,7.205764e+002
3.616088e+003,7.446959e+002
3.618017e+003,7.512902e+002
3.619945e+003,7.441967e+002
3.621874e+003,7.406642e+002
3.623802e+003,7.423079e+002
3.625730e+003,7.571870e+002
3.627659e+003,7.639887e+002
3.629587e+003,7.492453e+002
3.631516e+003,7.408598e+002
3.633444e+003,7.424664e+002
3.635373e+003,7.498711e+002
3.637301e+003,7.564390e+002
3.639230e+003,7.451984e+002
3.641158e+003,7.334147e+002
3.643087e+003,7.236688e+002
3.645015e+003,7.450419e+002
3.646944e+003,8.054811e+002
3.648872e+003,8.004710e+002
3.650801e+003,7.516103e+002
3.652729e+003,7.317422e+002
3.654657e+003,7.286987e+002
3.656586e+003,7.452855e+002
3.658514e+003,7.498232e+002
3.660443e+003,7.334249e+002
3.662371e+003,7.328445e+002
3.664300e+003,7.448805e+002
3.666228e+003,7.350865e+002
3.668157e+003,7.305488e+002
3.670085e+003,7.779236e+002
3.672014e+003,7.985950e+002
3.673942e+003,7.661021e+002
3.675871e+003,7.488259e+002
3.677799e+003,7.495331e+002
3.679728e+003,7.380119e+002
3.681656e+003,7.266609e+002
3.683584e+003,7.353253e+002
3.685513e+003,7.376474e+002
3.687441e+003,7.189114e+002
3.689370e+003,7.341476e+002
3.691298e+003,7.824737e+002
3.693227e+003,7.770358e+002
3.695155e+003,7.513611e+002
3.697084e+003,7.513612e+002
3.699012e+003,7.480018e+002
3.700941e+003,7.208797e+002
3.702869e+003,7.417589e+002
3.704798e+003,8.110500e+002
3.706726e+003,8.023258e+002
3.708655e+003,7.616660e+002
3.710583e+003,7.425617e+002
3.712511e+003,7.475649e+002
3.714440e+003,7.902916e+002
3.716368e+003,7.957177e+002
3.718297e+003,7.593696e+002
3.720225e+003,7.468032e+002
3.722154e+003,7.435615e+002
3.724082e+003,7.248645e+002
3.726011e+003,7.156889e+002
3.727939e+003,7.314548e+002
3.729868e+003,7.344911e+002
3.731796e+003,7.237665e+002
3.733725e+003,7.305964e+002
3.735653e+003,7.412727e+002
3.737582e+003,7.337871e+002
3.739510e+003,7.313821e+002
3.741438e+003,7.457643e+002
3.743367e+003,7.523443e+002
3.745295e+003,7.498722e+002
3.747224e+003,7.442215e+002
3.749152e+003,7.366313e+002
3.751081e+003,7.242897e+002
3.753009e+003,7.201290e+002
3.754938e+003,7.301125e+002
3.756866e+003,7.340234e+002
3.758795e+003,7.331752e+002
3.760723e+003,7.418627e+002
3.762652e+003,7.500737e+002
3.764580e+003,7.534058e+002
3.766509e+003,7.417350e+002
3.768437e+003,7.095421e+002
3.770365e+003,7.039861e+002
3.772294e+003,7.161511e+002
3.774222e+003,7.122980e+002
3.776151e+003,7.086952e+002
3.778079e+003,7.149191e+002
3.780008e+003,7.314951e+002
3.781936e+003,7.585134e+002
3.783865e+003,7.663058e+002
3.785793e+003,7.613737e+002
3.787722e+003,7.520674e+002
3.789650e+003,7.472434e+002
3.791579e+003,7.545063e+002
3.793507e+003,7.550797e+002
3.795436e+003,7.488297e+002
3.797364e+003,7.607789e+002
3.799292e+003,7.758198e+002
3.801221e+003,7.738682e+002
3.803149e+003,7.651036e+002
3.805078e+003,7.496357e+002
3.807006e+003,7.432006e+002
3.808935e+003,7.443055e+002
3.810863e+003,7.440397e+002
3.812792e+003,7.444661e+002
3.814720e+003,7.500909e+002
3.816649e+003,7.496081e+002
3.818577e+003,7.384101e+002
3.820506e+003,7.399203e+002
3.822434e+003,7.458199e+002
3.824363e+003,7.336184e+002
3.826291e+003,7.290671e+002
3.828219e+003,7.503651e+002
3.830148e+003,7.528362e+002
3.832076e+003,7.344914e+002
3.834005e+003,7.380214e+002
3.835933e+003,7.489689e+002
3.837862e+003,7.522615e+002
3.839790e+003,7.535387e+002
3.841719e+003,7.548011e+002
3.843647e+003,7.445716e+002
3.845576e+003,7.297437e+002
3.847504e+003,7.321599e+002
3.849433e+003,7.413685e+002
3.851361e+003,7.598256e+002
3.853290e+003,7.558698e+002
3.855218e+003,7.310035e+002
3.857146e+003,7.330090e+002
3.859075e+003,7.524272e+002
3.861003e+003,7.926718e+002
3.862932e+003,8.005154e+002
3.864860e+003,7.396989e+002
3.866789e+003,7.398339e+002
3.868717e+003,7.765556e+002
3.870646e+003,7.610735e+002
3.872574e+003,7.404610e+002
3.874503e+003,7.437907e+002
3.876431e+003,7.505825e+002
3.878360e+003,7.573214e+002
3.880288e+003,7.517393e+002
3.882217e+003,7.446232e+002
3.884145e+003,7.528889e+002
3.886073e+003,7.578039e+002
3.888002e+003,7.536425e+002
3.889930e+003,7.512214e+002
3.891859e+003,7.493732e+002
3.893787e+003,7.430899e+002
3.895716e+003,7.371631e+002
3.897644e+003,7.325696e+002
3.899573e+003,7.381027e+002
3.901501e+003,7.516331e+002
3.903430e+003,7.493533e+002
3.905358e+003,7.384047e+002
3.907287e+003,7.151129e+002
3.909215e+003,7.153555e+002
3.911144e+003,7.436892e+002
3.913072e+003,7.471646e+002
3.915000e+003,7.377900e+002
3.916929e+003,7.403198e+002
3.918857e+003,7.380333e+002
3.920786e+003,7.202275e+002
3.922714e+003,7.123122e+002
3.924643e+003,7.158231e+002
3.926571e+003,7.380909e+002
3.928500e+003,7.582494e+002
3.930428e+003,7.682094e+002
3.932357e+003,7.513995e+002
3.934285e+003,7.136460e+002
3.936214e+003,7.102975e+002
3.938142e+003,7.197757e+002
3.940071e+003,7.227970e+002
3.941999e+003,7.246299e+002
3.943927e+003,7.248904e+002
3.945856e+003,7.644407e+002
3.947784e+003,8.036270e+002
3.949713e+003,7.744192e+002
3.951641e+003,7.493608e+002
3.953570e+003,7.506561e+002
3.955498e+003,7.354445e+002
3.957427e+003,7.146502e+002
3.959355e+003,7.275094e+002
3.961284e+003,7.423804e+002
3.963212e+003,7.457684e+002
3.965141e+003,7.325219e+002
3.967069e+003,7.117903e+002
3.968998e+003,7.279273e+002
3.970926e+003,7.458062e+002
3.972854e+003,7.395190e+002
3.974783e+003,7.332387e+002
3.976711e+003,7.298034e+002
3.978640e+003,7.337680e+002
3.980568e+003,7.316847e+002
3.982497e+003,6.948205e+002
3.984425e+003,7.086677e+002
3.986354e+003,7.920118e+002
3.988282e+003,7.683030e+002
3.990211e+003,7.146858e+002
3.992139e+003,7.317662e+002
3.994068e+003,7.471912e+002
3.995996e+003,7.445778e+002
3.997925e+003,7.271463e+002
3.999853e+003,7.158627e+002
4.001781e+003,7.663439e+002
4.003710e+003,7.809719e+002
4.005638e+003,7.265295e+002
4.007567e+003,6.965125e+002
4.009495e+003,6.891159e+002
4.011424e+003,6.888552e+002
4.013352e+003,7.122885e+002
4.015281e+003,7.966197e+002
4.017209e+003,7.987369e+002
4.019138e+003,7.499392e+002
4.021066e+003,7.255477e+002
4.022995e+003,7.198291e+002
4.024923e+003,7.325320e+002
4.026852e+003,7.387493e+002
4.028780e+003,7.366817e+002
4.030708e+003,7.206196e+002
4.032637e+003,7.091490e+002
4.034565e+003,7.131918e+002
4.036494e+003,7.215652e+002
4.038422e+003,7.304170e+002
4.040351e+003,7.263510e+002
4.042279e+003,7.215195e+002
4.044208e+003,7.231531e+002
4.046136e+003,7.313390e+002
4.048065e+003,7.404025e+002
4.049993e+003,7.192715e+002
4.051922e+003,7.082614e+002
4.053850e+003,7.354073e+002
4.055779e+003,7.627039e+002
4.057707e+003,7.802712e+002
4.059635e+003,7.390865e+002
4.061564e+003,7.137452e+002
4.063492e+003,7.669449e+002
4.065421e+003,7.721841e+002
4.067349e+003,7.331990e+002
4.069278e+003,7.476100e+002
4.071206e+003,7.802974e+002
4.073135e+003,8.296408e+002
4.075063e+003,8.116343e+002
4.076992e+003,7.469473e+002
4.078920e+003,7.747004e+002
4.080849e+003,7.987195e+002
4.082777e+003,7.445840e+002
4.084706e+003,7.193029e+002
4.086634e+003,7.227422e+002
4.088563e+003,7.197426e+002
4.090491e+003,7.184265e+002
4.092419e+003,7.250325e+002
4.094348e+003,7.227643e+002
4.096276e+003,7.165020e+002
4.098205e+003,7.410635e+002
4.100133e+003,7.554422e+002
4.102062e+003,7.308651e+002
4.103990e+003,7.205263e+002
4.105919e+003,7.215594e+002
4.107847e+003,7.118489e+002
4.109776e+003,7.042766e+002
4.111704e+003,7.093060e+002
4.113633e+003,7.039053e+002
4.115561e+003,6.945811e+002
4.117490e+003,6.935690e+002
4.119418e+003,7.085319e+002
4.121347e+003,7.463046e+002
4.123275e+003,7.422294e+002
4.125204e+003,7.236984e+002
4.127132e+003,7.644943e+002
4.129061e+003,7.754897e+002
4.130989e+003,7.316695e+002
4.132917e+003,7.186714e+002
4.134846e+003,7.229034e+002
4.136774e+003,7.202037e+002
4.138703e+003,7.166538e+002
4.140631e+003,7.135955e+002
4.142560e+003,7.173301e+002
4.144488e+003,7.235853e+002
4.146417e+003,7.332987e+002
4.148345e+003,7.240092e+002
4.150273e+003,6.940244e+002
4.152202e+003,6.960920e+002
4.154130e+003,7.064147e+002
4.156059e+003,7.007570e+002
4.157987e+003,7.047477e+002
4.159916e+003,7.183052e+002
4.161844e+003,7.315156e+002
4.163773e+003,7.320787e+002
4.165701e+003,6.974956e+002
4.167630e+003,7.079890e+002
4.169558e+003,7.430476e+002
4.171487e+003,7.257888e+002
4.173415e+003,7.090371e+002
4.175344e+003,7.152902e+002
4.177272e+003,7.243685e+002
4.179201e+003,7.310880e+002
4.181129e+003,7.204459e+002
4.183058e+003,7.302893e+002
4.184986e+003,7.677750e+002
4.186915e+003,7.537124e+002
4.188843e+003,7.202181e+002
4.190771e+003,7.032682e+002
4.192700e+003,6.978409e+002
4.194628e+003,7.025991e+002
4.196557e+003,7.370264e+002
4.198485e+003,7.555425e+002
4.200414e+003,7.140742e+002
4.202342e+003,6.959734e+002
4.204271e+003,7.030652e+002
4.206199e+003,7.094330e+002
4.208127e+003,7.137515e+002
4.210056e+003,7.145627e+002
4.211984e+003,7.160757e+002
4.213913e+003,7.177117e+002
4.215841e+003,7.161671e+002
4.217770e+003,7.202130e+002
4.219698e+003,7.341977e+002
4.221627e+003,7.281382e+002
4.223555e+003,7.164119e+002
4.225484e+003,7.184741e+002
4.227412e+003,7.076910e+002
4.229341e+003,6.861970e+002
4.231269e+003,6.976490e+002
4.233198e+003,7.122463e+002
4.235126e+003,7.063284e+002
4.237055e+003,7.114736e+002
4.238983e+003,7.204092e+002
4.240912e+003,7.082802e+002
4.242840e+003,7.019905e+002
4.244769e+003,7.124077e+002
4.246697e+003,7.063456e+002
4.248625e+003,7.053533e+002
4.250554e+003,7.346296e+002
