1.159199e+002,2.507100e+002
1.178484e+002,2.887407e+002
1.197769e+002,3.206502e+002
1.217053e+002,3.458742e+002
1.236338e+002,3.685962e+002
1.255623e+002,3.871573e+002
1.274907e+002,4.045205e+002
1.294192e+002,4.235406e+002
1.313477e+002,4.478535e+002
1.332761e+002,4.690204e+002
1.352046e+002,4.832076e+002
1.371331e+002,4.886517e+002
1.390615e+002,4.948358e+002
1.409900e+002,5.021070e+002
1.429185e+002,5.098039e+002
1.448469e+002,5.173892e+002
1.467754e+002,5.236475e+002
1.487039e+002,5.294023e+002
1.506323e+002,5.356596e+002
1.525608e+002,5.432600e+002
1.544893e+002,5.468632e+002
1.564177e+002,5.460261e+002
1.583462e+002,5.418259e+002
1.602747e+002,5.364701e+002
1.622031e+002,5.350717e+002
1.641316e+002,5.304799e+002
1.660601e+002,5.192476e+002
1.679885e+002,4.985815e+002
1.699170e+002,4.788493e+002
1.718455e+002,4.606591e+002
1.737739e+002,4.440831e+002
1.757024e+002,4.311430e+002
1.776309e+002,4.194195e+002
1.795593e+002,4.121688e+002
1.814878e+002,4.118944e+002
1.834163e+002,4.309801e+002
1.853447e+002,4.443357e+002
1.872732e+002,4.456631e+002
1.892017e+002,4.363419e+002
1.911301e+002,4.269734e+002
1.930586e+002,4.172556e+002
1.949871e+002,4.089739e+002
1.969155e+002,4.051493e+002
1.988440e+002,4.108376e+002
2.007725e+002,4.155801e+002
2.027009e+002,4.145923e+002
2.046294e+002,4.070939e+002
2.065579e+002,4.035613e+002
2.084864e+002,4.076703e+002
2.104148e+002,4.161472e+002
2.123433e+002,4.217443e+002
2.142718e+002,4.220562e+002
2.162002e+002,4.219527e+002
2.181287e+002,4.240442e+002
2.200572e+002,4.304681e+002
2.219856e+002,4.329074e+002
2.239141e+002,4.270903e+002
2.258426e+002,4.170720e+002
2.277710e+002,4.128732e+002
2.296995e+002,4.187768e+002
2.316280e+002,4.265649e+002
2.335564e+002,4.324301e+002
2.354849e+002,4.348929e+002
2.374134e+002,4.377340e+002
2.393418e+002,4.417003e+002
2.412703e+002,4.460303e+002
2.431988e+002,4.490540e+002
2.451272e+002,4.480669e+002
2.470557e+002,4.473132e+002
2.489842e+002,4.493086e+002
2.509126e+002,4.563774e+002
2.528411e+002,4.609064e+002
2.547696e+002,4.589338e+002
2.566980e+002,4.532992e+002
2.586265e+002,4.515268e+002
2.605550e+002,4.583802e+002
2.624834e+002,4.663760e+002
2.644119e+002,4.719318e+002
2.663404e+002,4.750401e+002
2.682688e+002,4.768532e+002
2.701973e+002,4.769930e+002
2.721258e+002,4.757102e+002
2.740542e+002,4.740776e+002
2.759827e+002,4.678211e+002
2.779112e+002,4.638961e+002
2.798396e+002,4.681304e+002
2.817681e+002,4.820696e+002
2.836966e+002,4.929818e+002
2.856250e+002,4.980384e+002
2.875535e+002,4.981434e+002
2.894820e+002,4.955079e+002
2.914104e+002,4.891441e+002
2.933389e+002,4.820432e+002
2.952674e+002,4.744931e+002
2.971958e+002,4.650206e+002
2.991243e+002,4.617966e+002
3.010528e+002,4.690922e+002
3.029813e+002,4.835024e+002
3.049097e+002,4.943466e+002
3.068382e+002,5.008809e+002
3.087667e+002,5.041966e+002
3.106951e+002,5.033671e+002
3.126236e+002,4.952307e+002
3.145521e+002,4.927896e+002
3.164805e+002,5.013842e+002
3.184090e+002,5.158265e+002
3.203375e+002,5.252466e+002
3.222659e+002,5.278664e+002
3.241944e+002,5.285042e+002
3.261229e+002,5.290303e+002
3.280513e+002,5.291224e+002
3.299798e+002,5.301277e+002
3.319083e+002,5.328858e+002
3.338367e+002,5.360223e+002
3.357652e+002,5.376709e+002
3.376937e+002,5.368416e+002
3.396221e+002,5.357450e+002
3.415506e+002,5.346357e+002
3.434791e+002,5.332272e+002
3.454075e+002,5.339705e+002
3.473360e+002,5.385184e+002
3.492645e+002,5.445051e+002
3.511929e+002,5.502059e+002
3.531214e+002,5.568668e+002
3.550499e+002,5.607094e+002
3.569783e+002,5.593808e+002
3.589068e+002,5.530657e+002
3.608353e+002,5.499220e+002
3.627637e+002,5.527092e+002
3.646922e+002,5.566731e+002
3.666207e+002,5.588439e+002
3.685491e+002,5.579386e+002
3.704776e+002,5.582025e+002
3.724061e+002,5.616541e+002
3.743345e+002,5.671099e+002
3.762630e+002,5.699502e+002
3.781915e+002,5.670509e+002
3.801199e+002,5.650941e+002
3.820484e+002,5.674316e+002
3.839769e+002,5.769529e+002
3.859053e+002,5.832355e+002
3.878338e+002,5.808477e+002
3.897623e+002,5.760393e+002
3.916907e+002,5.792824e+002
3.936192e+002,5.962842e+002
3.955477e+002,6.108025e+002
3.974761e+002,6.166152e+002
3.994046e+002,6.116814e+002
4.013331e+002,6.093851e+002
4.032615e+002,6.118766e+002
4.051900e+002,6.159614e+002
4.071185e+002,6.194672e+002
4.090469e+002,6.231256e+002
4.109754e+002,6.252448e+002
4.129039e+002,6.245886e+002
4.148323e+002,6.219023e+002
4.167608e+002,6.215045e+002
4.186893e+002,6.246214e+002
4.206177e+002,6.283422e+002
4.225462e+002,6.305567e+002
4.244747e+002,6.304474e+002
4.264032e+002,6.327205e+002
4.283316e+002,6.445042e+002
4.302601e+002,6.575358e+002
4.321886e+002,6.555097e+002
4.341170e+002,6.246688e+002
4.360455e+002,6.023975e+002
4.379740e+002,6.073666e+002
4.399024e+002,6.365621e+002
4.418309e+002,6.573289e+002
4.437594e+002,6.649156e+002
4.456878e+002,6.652466e+002
4.476163e+002,6.599075e+002
4.495448e+002,6.469760e+002
4.514732e+002,6.357910e+002
4.534017e+002,6.285598e+002
4.553302e+002,6.244938e+002
4.572586e+002,6.227416e+002
4.591871e+002,6.225942e+002
4.611156e+002,6.257776e+002
4.630440e+002,6.347330e+002
4.649725e+002,6.493746e+002
4.669010e+002,6.629237e+002
4.688294e+002,6.766838e+002
4.707579e+002,6.874488e+002
4.726864e+002,6.925528e+002
4.746148e+002,6.852946e+002
4.765433e+002,6.794634e+002
4.784718e+002,6.759406e+002
4.804002e+002,6.743388e+002
4.823287e+002,6.738326e+002
4.842572e+002,6.773635e+002
4.861856e+002,6.781478e+002
4.881141e+002,6.724108e+002
4.900426e+002,6.569431e+002
4.919710e+002,6.470634e+002
4.938995e+002,6.440514e+002
4.958280e+002,6.460694e+002
4.977564e+002,6.517446e+002
4.996849e+002,6.623967e+002
5.016134e+002,6.729047e+002
5.035418e+002,6.809356e+002
5.054703e+002,6.874210e+002
5.073988e+002,6.967388e+002
5.093272e+002,7.104449e+002
5.112557e+002,7.247972e+002
5.131842e+002,7.423890e+002
5.151127e+002,7.630707e+002
5.170411e+002,7.703190e+002
5.189696e+002,7.482213e+002
5.208981e+002,7.195404e+002
5.228265e+002,7.022927e+002
5.247550e+002,7.004412e+002
5.266835e+002,7.021910e+002
5.286119e+002,7.105129e+002
5.305404e+002,7.211210e+002
5.324689e+002,7.258052e+002
5.343973e+002,7.128621e+002
5.363258e+002,7.072844e+002
5.382543e+002,7.229285e+002
5.401827e+002,7.619283e+002
5.421112e+002,7.817496e+002
5.440397e+002,7.650978e+002
5.459681e+002,7.415582e+002
5.478966e+002,7.294337e+002
5.498251e+002,7.329352e+002
5.517535e+002,7.345127e+002
5.536820e+002,7.303810e+002
5.556105e+002,7.242399e+002
5.575389e+002,7.220891e+002
5.594674e+002,7.250449e+002
5.613959e+002,7.298571e+002
5.633243e+002,7.349814e+002
5.652528e+002,7.409478e+002
5.671813e+002,7.511309e+002
5.691097e+002,7.709087e+002
5.710382e+002,7.899755e+002
5.729667e+002,8.052029e+002
5.748951e+002,8.162626e+002
5.768236e+002,8.205049e+002
5.787521e+002,8.104512e+002
5.806805e+002,7.973046e+002
5.826090e+002,7.900750e+002
5.845375e+002,7.926985e+002
5.864659e+002,7.939052e+002
5.883944e+002,7.918708e+002
5.903229e+002,7.880502e+002
5.922513e+002,7.855786e+002
5.941798e+002,7.863107e+002
5.961083e+002,7.855569e+002
5.980367e+002,7.810782e+002
5.999652e+002,7.734409e+002
6.018937e+002,7.673507e+002
6.038221e+002,7.613069e+002
6.057506e+002,7.578066e+002
6.076791e+002,7.583840e+002
6.096075e+002,7.627900e+002
6.115360e+002,7.681667e+002
6.134645e+002,7.735031e+002
6.153929e+002,7.798773e+002
6.173214e+002,7.883171e+002
6.192499e+002,8.006188e+002
6.211783e+002,8.121777e+002
6.231068e+002,8.284537e+002
6.250353e+002,8.426058e+002
6.269637e+002,8.426244e+002
6.288922e+002,8.223815e+002
6.308207e+002,8.051029e+002
6.327491e+002,7.985459e+002
6.346776e+002,8.005914e+002
6.366061e+002,8.044780e+002
6.385345e+002,8.124094e+002
6.404630e+002,8.189712e+002
6.423915e+002,8.220164e+002
6.443199e+002,8.215293e+002
6.462484e+002,8.194626e+002
6.481769e+002,8.124315e+002
6.501053e+002,8.079666e+002
6.520338e+002,8.106119e+002
6.539623e+002,8.236790e+002
6.558907e+002,8.356906e+002
6.578192e+002,8.501361e+002
6.597477e+002,8.615508e+002
6.616761e+002,8.627891e+002
6.636046e+002,8.520411e+002
6.655331e+002,8.422397e+002
6.674615e+002,8.368820e+002
6.693900e+002,8.341662e+002
6.713185e+002,8.320947e+002
6.732469e+002,8.305179e+002
6.751754e+002,8.303542e+002
6.771039e+002,8.322854e+002
6.790323e+002,8.360691e+002
6.809608e+002,8.401558e+002
6.828893e+002,8.430818e+002
6.848177e+002,8.485466e+002
6.867462e+002,8.603860e+002
6.886747e+002,8.778533e+002
6.906031e+002,8.870564e+002
6.925316e+002,8.811096e+002
6.944601e+002,8.736877e+002
6.963885e+002,8.688774e+002
6.983170e+002,8.669635e+002
7.002455e+002,8.703403e+002
7.021740e+002,8.847112e+002
7.041024e+002,8.994388e+002
7.060309e+002,9.082228e+002
7.079594e+002,9.092159e+002
7.098878e+002,9.088746e+002
7.118163e+002,9.078113e+002
7.137448e+002,9.051374e+002
7.156732e+002,8.991903e+002
7.176017e+002,8.895616e+002
7.195302e+002,8.816837e+002
7.214586e+002,8.770566e+002
7.233871e+002,8.753932e+002
7.253156e+002,8.763765e+002
7.272440e+002,8.801177e+002
7.291725e+002,8.873781e+002
7.311010e+002,9.003986e+002
7.330294e+002,9.162782e+002
7.349579e+002,9.301141e+002
7.368864e+002,9.422338e+002
7.388149e+002,9.508384e+002
7.407433e+002,9.509592e+002
7.426718e+002,9.468447e+002
7.446003e+002,9.487879e+002
7.465287e+002,9.672078e+002
7.484572e+002,9.796124e+002
7.503857e+002,9.794425e+002
7.523141e+002,9.694026e+002
7.542426e+002,9.603619e+002
7.561711e+002,9.463188e+002
7.580995e+002,9.429269e+002
7.600280e+002,9.681515e+002
7.619565e+002,1.013999e+003
7.638849e+002,1.035732e+003
7.658134e+002,1.005739e+003
7.677419e+002,9.740121e+002
7.696703e+002,9.540960e+002
7.715988e+002,9.464487e+002
7.735273e+002,9.439789e+002
7.754557e+002,9.518437e+002
7.773842e+002,9.591843e+002
7.793127e+002,9.600016e+002
7.812411e+002,9.550217e+002
7.831696e+002,9.518702e+002
7.850981e+002,9.539775e+002
7.870266e+002,9.563276e+002
7.889550e+002,9.562058e+002
7.908835e+002,9.529549e+002
7.928120e+002,9.527290e+002
7.947404e+002,9.587604e+002
7.966689e+002,9.652539e+002
7.985974e+002,9.669800e+002
8.005258e+002,9.635568e+002
8.024543e+002,9.658401e+002
8.043828e+002,9.814921e+002
8.063112e+002,9.979516e+002
8.082397e+002,1.008173e+003
8.101682e+002,1.009915e+003
8.120966e+002,1.010764e+003
8.140251e+002,1.010834e+003
8.159536e+002,1.010170e+003
8.178820e+002,1.008172e+003
8.198105e+002,1.005060e+003
8.217390e+002,1.005526e+003
8.236674e+002,1.017912e+003
8.255959e+002,1.029440e+003
8.275244e+002,1.031201e+003
8.294528e+002,1.016472e+003
8.313813e+002,1.008977e+003
8.333098e+002,1.011503e+003
8.352382e+002,1.018494e+003
8.371667e+002,1.026777e+003
8.390952e+002,1.036329e+003
8.410236e+002,1.043953e+003
8.429521e+002,1.045714e+003
8.448806e+002,1.047868e+003
8.468090e+002,1.055880e+003
8.487375e+002,1.075444e+003
8.506660e+002,1.085534e+003
8.525944e+002,1.076551e+003
8.545229e+002,1.065405e+003
8.564514e+002,1.067426e+003
8.583798e+002,1.083325e+003
8.603083e+002,1.093978e+003
8.622368e+002,1.092379e+003
8.641652e+002,1.087970e+003
8.660937e+002,1.087898e+003
8.680222e+002,1.094181e+003
8.699506e+002,1.094840e+003
8.718791e+002,1.083815e+003
8.738076e+002,1.071693e+003
8.757360e+002,1.065000e+003
8.776645e+002,1.064316e+003
8.795930e+002,1.066668e+003
8.815214e+002,1.076530e+003
8.834499e+002,1.085634e+003
8.853784e+002,1.088682e+003
8.873068e+002,1.085656e+003
8.892353e+002,1.082888e+003
8.911638e+002,1.077836e+003
8.930922e+002,1.075477e+003
8.950207e+002,1.078745e+003
8.969492e+002,1.088081e+003
8.988776e+002,1.096160e+003
9.008061e+002,1.103303e+003
9.027346e+002,1.108555e+003
9.046630e+002,1.113886e+003
9.065915e+002,1.118443e+003
9.085200e+002,1.113548e+003
9.104484e+002,1.088951e+003
9.123769e+002,1.068698e+003
9.143054e+002,1.064508e+003
9.162338e+002,1.075877e+003
9.181623e+002,1.084764e+003
9.200908e+002,1.090187e+003
9.220192e+002,1.094560e+003
9.239477e+002,1.096046e+003
9.258762e+002,1.096117e+003
9.278046e+002,1.100413e+003
9.297331e+002,1.109482e+003
9.316616e+002,1.120430e+003
9.335900e+002,1.134341e+003
9.355185e+002,1.148823e+003
9.374470e+002,1.157360e+003
9.393754e+002,1.156316e+003
9.413039e+002,1.153931e+003
9.432324e+002,1.148737e+003
9.451608e+002,1.144064e+003
9.470893e+002,1.148400e+003
9.490178e+002,1.168076e+003
9.509462e+002,1.179714e+003
9.528747e+002,1.170811e+003
9.548032e+002,1.154417e+003
9.567316e+002,1.144489e+003
9.586601e+002,1.141816e+003
9.605886e+002,1.143197e+003
9.625170e+002,1.150793e+003
9.644455e+002,1.159976e+003
9.663740e+002,1.166826e+003
9.683024e+002,1.170498e+003
9.702309e+002,1.173321e+003
9.721594e+002,1.176429e+003
9.740878e+002,1.177563e+003
9.760163e+002,1.172522e+003
9.779448e+002,1.161927e+003
9.798733e+002,1.157353e+003
9.818018e+002,1.163169e+003
9.837302e+002,1.172350e+003
9.856587e+002,1.183207e+003
9.875872e+002,1.195825e+003
9.895156e+002,1.203190e+003
9.914441e+002,1.200166e+003
9.933726e+002,1.198266e+003
9.953010e+002,1.201548e+003
9.972295e+002,1.209178e+003
9.991580e+002,1.217261e+003
1.001086e+003,1.226470e+003
1.003015e+003,1.235198e+003
1.004943e+003,1.247636e+003
1.006872e+003,1.257801e+003
1.008800e+003,1.253457e+003
1.010729e+003,1.224403e+003
1.012657e+003,1.204057e+003
1.014586e+003,1.202204e+003
1.016514e+003,1.208261e+003
1.018443e+003,1.211042e+003
1.020371e+003,1.208524e+003
1.022300e+003,1.207744e+003
1.024228e+003,1.211658e+003
1.026156e+003,1.215615e+003
1.028085e+003,1.216934e+003
1.030013e+003,1.215942e+003
1.031942e+003,1.212031e+003
1.033870e+003,1.200869e+003
1.035799e+003,1.192144e+003
1.037727e+003,1.189870e+003
1.039656e+003,1.193640e+003
1.041584e+003,1.199855e+003
1.043513e+003,1.210186e+003
1.045441e+003,1.220592e+003
1.047370e+003,1.233277e+003
1.049298e+003,1.245107e+003
1.051227e+003,1.246661e+003
1.053155e+003,1.231690e+003
1.055083e+003,1.225844e+003
1.057012e+003,1.246412e+003
1.058940e+003,1.272814e+003
1.060869e+003,1.284395e+003
1.062797e+003,1.278615e+003
1.064726e+003,1.272353e+003
1.066654e+003,1.266314e+003
1.068583e+003,1.261377e+003
1.070511e+003,1.258449e+003
1.072440e+003,1.257641e+003
1.074368e+003,1.255308e+003
1.076297e+003,1.248555e+003
1.078225e+003,1.244450e+003
1.080154e+003,1.248376e+003
1.082082e+003,1.257761e+003
1.084010e+003,1.264637e+003
1.085939e+003,1.270271e+003
1.087867e+003,1.271644e+003
1.089796e+003,1.259672e+003
1.091724e+003,1.246372e+003
1.093653e+003,1.247493e+003
1.095581e+003,1.268551e+003
1.097510e+003,1.283426e+003
1.099438e+003,1.281624e+003
1.101367e+003,1.278946e+003
1.103295e+003,1.289470e+003
1.105224e+003,1.315591e+003
1.107152e+003,1.326408e+003
1.109081e+003,1.307100e+003
1.111009e+003,1.291044e+003
1.112938e+003,1.294177e+003
1.114866e+003,1.308917e+003
1.116794e+003,1.316899e+003
1.118723e+003,1.313982e+003
1.120651e+003,1.312745e+003
1.122580e+003,1.318337e+003
1.124508e+003,1.326031e+003
1.126437e+003,1.331523e+003
1.128365e+003,1.334795e+003
1.130294e+003,1.336315e+003
1.132222e+003,1.335554e+003
1.134151e+003,1.334862e+003
1.136079e+003,1.334922e+003
1.138008e+003,1.336104e+003
1.139936e+003,1.340588e+003
1.141865e+003,1.349658e+003
1.143793e+003,1.358874e+003
1.145721e+003,1.368378e+003
1.147650e+003,1.375429e+003
1.149578e+003,1.376002e+003
1.151507e+003,1.368714e+003
1.153435e+003,1.359780e+003
1.155364e+003,1.344626e+003
1.157292e+003,1.334282e+003
1.159221e+003,1.339933e+003
1.161149e+003,1.366039e+003
1.163078e+003,1.378959e+003
1.165006e+003,1.367679e+003
1.166935e+003,1.357671e+003
1.168863e+003,1.358418e+003
1.170792e+003,1.366136e+003
1.172720e+003,1.369502e+003
1.174648e+003,1.364669e+003
1.176577e+003,1.364898e+003
1.178505e+003,1.379702e+003
1.180434e+003,1.395121e+003
1.182362e+003,1.397171e+003
1.184291e+003,1.386348e+003
1.186219e+003,1.380619e+003
1.188148e+003,1.385182e+003
1.190076e+003,1.391550e+003
1.192005e+003,1.395415e+003
1.193933e+003,1.398538e+003
1.195862e+003,1.406714e+003
1.197790e+003,1.428260e+003
1.199719e+003,1.441686e+003
1.201647e+003,1.443875e+003
1.203575e+003,1.437729e+003
1.205504e+003,1.421734e+003
1.207432e+003,1.393032e+003
1.209361e+003,1.377478e+003
1.211289e+003,1.381531e+003
1.213218e+003,1.391511e+003
1.215146e+003,1.408453e+003
1.217075e+003,1.426633e+003
1.219003e+003,1.433078e+003
1.220932e+003,1.424356e+003
1.222860e+003,1.417602e+003
1.224789e+003,1.414635e+003
1.226717e+003,1.417735e+003
1.228646e+003,1.432785e+003
1.230574e+003,1.462010e+003
1.232502e+003,1.475425e+003
1.234431e+003,1.454105e+003
1.236359e+003,1.436338e+003
1.238288e+003,1.434785e+003
1.240216e+003,1.442913e+003
1.242145e+003,1.447229e+003
1.244073e+003,1.445047e+003
1.246002e+003,1.447515e+003
1.247930e+003,1.465544e+003
1.249859e+003,1.480704e+003
1.251787e+003,1.476075e+003
1.253716e+003,1.457229e+003
1.255644e+003,1.448525e+003
1.257573e+003,1.455218e+003
1.259501e+003,1.462907e+003
1.261429e+003,1.466366e+003
1.263358e+003,1.467499e+003
1.265286e+003,1.466856e+003
1.267215e+003,1.462878e+003
1.269143e+003,1.464610e+003
1.271072e+003,1.476555e+003
1.273000e+003,1.490327e+003
1.274929e+003,1.506907e+003
1.276857e+003,1.523416e+003
1.278786e+003,1.529789e+003
1.280714e+003,1.518116e+003
1.282643e+003,1.508659e+003
1.284571e+003,1.502045e+003
1.286500e+003,1.498588e+003
1.288428e+003,1.501351e+003
1.290356e+003,1.509403e+003
1.292285e+003,1.508504e+003
1.294213e+003,1.487414e+003
1.296142e+003,1.476906e+003
1.298070e+003,1.498969e+003
1.299999e+003,1.530781e+003
1.301927e+003,1.544601e+003
1.303856e+003,1.538812e+003
1.305784e+003,1.537973e+003
1.307713e+003,1.550446e+003
1.309641e+003,1.562389e+003
1.311570e+003,1.567486e+003
1.313498e+003,1.568159e+003
1.315427e+003,1.570808e+003
1.317355e+003,1.578196e+003
1.319283e+003,1.582034e+003
1.321212e+003,1.576596e+003
1.323140e+003,1.572323e+003
1.325069e+003,1.579480e+003
1.326997e+003,1.595893e+003
1.328926e+003,1.598559e+003
1.330854e+003,1.569395e+003
1.332783e+003,1.555350e+003
1.334711e+003,1.574123e+003
1.336640e+003,1.604058e+003
1.338568e+003,1.626099e+003
1.340497e+003,1.640880e+003
1.342425e+003,1.653635e+003
1.344354e+003,1.666937e+003
1.346282e+003,1.674115e+003
1.348210e+003,1.666588e+003
1.350139e+003,1.654662e+003
1.352068e+003,1.652011e+003
1.353996e+003,1.659474e+003
1.355924e+003,1.661272e+003
1.357853e+003,1.653786e+003
1.359781e+003,1.641709e+003
1.361710e+003,1.620491e+003
1.363638e+003,1.597943e+003
1.365567e+003,1.591899e+003
1.367495e+003,1.612465e+003
1.369424e+003,1.622291e+003
1.371352e+003,1.615037e+003
1.373281e+003,1.602958e+003
1.375209e+003,1.585942e+003
1.377138e+003,1.568719e+003
1.379066e+003,1.566905e+003
1.380995e+003,1.587631e+003
1.382923e+003,1.608831e+003
1.384851e+003,1.636133e+003
1.386780e+003,1.655785e+003
1.388708e+003,1.654448e+003
1.390637e+003,1.636690e+003
1.392565e+003,1.623243e+003
1.394494e+003,1.613560e+003
1.396422e+003,1.610883e+003
1.398351e+003,1.623004e+003
1.400279e+003,1.636858e+003
1.402208e+003,1.641236e+003
1.404136e+003,1.639410e+003
1.406065e+003,1.644073e+003
1.407993e+003,1.658500e+003
1.409922e+003,1.670752e+003
1.411850e+003,1.679055e+003
1.413778e+003,1.682639e+003
1.415707e+003,1.680242e+003
1.417635e+003,1.672899e+003
1.419564e+003,1.666042e+003
1.421492e+003,1.658181e+003
1.423421e+003,1.655411e+003
1.425349e+003,1.659325e+003
1.427278e+003,1.667172e+003
1.429206e+003,1.679565e+003
1.431135e+003,1.695570e+003
1.433063e+003,1.699573e+003
1.434992e+003,1.671325e+003
1.436920e+003,1.657423e+003
1.438849e+003,1.680719e+003
1.440777e+003,1.706672e+003
1.442705e+003,1.701275e+003
1.444634e+003,1.667311e+003
1.446562e+003,1.653725e+003
1.448491e+003,1.677601e+003
1.450419e+003,1.691770e+003
1.452348e+003,1.674615e+003
1.454276e+003,1.655454e+003
1.456205e+003,1.663323e+003
1.458133e+003,1.692234e+003
1.460062e+003,1.706498e+003
1.461990e+003,1.699276e+003
1.463919e+003,1.692967e+003
1.465847e+003,1.691165e+003
1.467776e+003,1.694960e+003
1.469704e+003,1.710530e+003
1.471632e+003,1.733024e+003
1.473561e+003,1.742650e+003
1.475489e+003,1.732648e+003
1.477418e+003,1.730701e+003
1.479346e+003,1.750350e+003
1.481275e+003,1.773322e+003
1.483203e+003,1.792563e+003
1.485132e+003,1.805115e+003
1.487060e+003,1.797195e+003
1.488989e+003,1.757324e+003
1.490917e+003,1.734319e+003
1.492846e+003,1.756870e+003
1.494774e+003,1.779784e+003
1.496703e+003,1.780120e+003
1.498631e+003,1.764981e+003
1.500559e+003,1.753004e+003
1.502488e+003,1.742171e+003
1.504416e+003,1.740496e+003
1.506345e+003,1.752700e+003
1.508273e+003,1.768035e+003
1.510202e+003,1.790682e+003
1.512130e+003,1.810579e+003
1.514059e+003,1.806303e+003
1.515987e+003,1.766182e+003
1.517916e+003,1.740141e+003
1.519844e+003,1.733046e+003
1.521773e+003,1.733846e+003
1.523701e+003,1.743714e+003
1.525630e+003,1.757083e+003
1.527558e+003,1.764433e+003
1.529486e+003,1.763423e+003
1.531415e+003,1.772224e+003
1.533343e+003,1.797288e+003
1.535272e+003,1.821044e+003
1.537200e+003,1.845321e+003
1.539129e+003,1.862526e+003
1.541057e+003,1.863593e+003
1.542986e+003,1.850885e+003
1.544914e+003,1.840123e+003
1.546843e+003,1.827881e+003
1.548771e+003,1.829008e+003
1.550700e+003,1.863888e+003
1.552628e+003,1.896377e+003
1.554557e+003,1.894350e+003
1.556485e+003,1.872692e+003
1.558413e+003,1.873407e+003
1.560342e+003,1.900525e+003
1.562270e+003,1.919408e+003
1.564199e+003,1.921233e+003
1.566127e+003,1.917132e+003
1.568056e+003,1.904759e+003
1.569984e+003,1.894402e+003
1.571913e+003,1.905451e+003
1.573841e+003,1.936776e+003
1.575770e+003,1.948959e+003
1.577698e+003,1.929673e+003
1.579627e+003,1.910685e+003
1.581555e+003,1.901686e+003
1.583484e+003,1.899250e+003
1.585412e+003,1.903959e+003
1.587340e+003,1.913078e+003
1.589269e+003,1.914061e+003
1.591197e+003,1.904033e+003
1.593126e+003,1.895260e+003
1.595054e+003,1.888129e+003
1.596983e+003,1.885738e+003
1.598911e+003,1.888334e+003
1.600840e+003,1.896454e+003
1.602768e+003,1.914926e+003
1.604697e+003,1.944942e+003
1.606625e+003,1.962447e+003
1.608554e+003,1.957913e+003
1.610482e+003,1.953303e+003
1.612411e+003,1.957389e+003
1.614339e+003,1.964874e+003
1.616267e+003,1.976481e+003
1.618196e+003,1.990553e+003
1.620124e+003,1.984121e+003
1.622053e+003,1.945907e+003
1.623981e+003,1.920423e+003
1.625910e+003,1.918941e+003
1.627838e+003,1.928378e+003
1.629767e+003,1.949039e+003
1.631695e+003,1.972972e+003
1.633624e+003,1.984672e+003
1.635552e+003,1.981976e+003
1.637481e+003,1.979265e+003
1.639409e+003,1.974298e+003
1.641338e+003,1.975797e+003
1.643266e+003,1.992718e+003
1.645194e+003,2.011919e+003
1.647123e+003,2.024857e+003
1.649051e+003,2.031232e+003
1.650980e+003,2.027732e+003
1.652908e+003,2.007599e+003
1.654837e+003,1.994329e+003
1.656765e+003,1.994146e+003
1.658694e+003,1.995363e+003
1.660622e+003,1.990890e+003
1.662551e+003,1.988250e+003
1.664479e+003,2.000921e+003
1.666408e+003,2.031179e+003
1.668336e+003,2.048861e+003
1.670265e+003,2.051807e+003
1.672193e+003,2.049513e+003
1.674121e+003,2.035715e+003
1.676050e+003,2.025513e+003
1.677978e+003,2.025092e+003
1.679907e+003,2.032988e+003
1.681835e+003,2.049158e+003
1.683764e+003,2.076334e+003
1.685692e+003,2.091875e+003
1.687621e+003,2.093200e+003
1.689549e+003,2.084644e+003
1.691478e+003,2.053485e+003
1.693406e+003,2.028078e+003
1.695335e+003,2.036075e+003
1.697263e+003,2.067073e+003
1.699192e+003,2.082479e+003
1.701120e+003,2.074213e+003
1.703048e+003,2.081033e+003
1.704977e+003,2.123850e+003
1.706905e+003,2.153387e+003
1.708834e+003,2.148500e+003
1.710762e+003,2.131132e+003
1.712691e+003,2.120191e+003
1.714619e+003,2.113879e+003
1.716548e+003,2.101320e+003
1.718476e+003,2.080743e+003
1.720405e+003,2.064418e+003
1.722333e+003,2.048631e+003
1.724262e+003,2.045595e+003
1.726190e+003,2.069145e+003
1.728119e+003,2.097921e+003
1.730047e+003,2.111196e+003
1.731975e+003,2.110169e+003
1.733904e+003,2.106876e+003
1.735832e+003,2.099337e+003
1.737761e+003,2.096086e+003
1.739689e+003,2.096089e+003
1.741618e+003,2.104634e+003
1.743546e+003,2.134947e+003
1.745475e+003,2.165194e+003
1.747403e+003,2.170263e+003
1.749332e+003,2.153505e+003
1.751260e+003,2.144112e+003
1.753189e+003,2.144577e+003
1.755117e+003,2.141281e+003
1.757046e+003,2.128177e+003
1.758974e+003,2.119947e+003
1.760902e+003,2.126450e+003
1.762831e+003,2.138075e+003
1.764759e+003,2.144892e+003
1.766688e+003,2.149077e+003
1.768616e+003,2.161982e+003
1.770545e+003,2.185545e+003
1.772473e+003,2.199337e+003
1.774402e+003,2.193163e+003
1.776330e+003,2.186232e+003
1.778259e+003,2.179931e+003
1.780187e+003,2.181091e+003
1.782116e+003,2.204287e+003
1.784044e+003,2.238401e+003
1.785973e+003,2.250893e+003
1.787901e+003,2.240678e+003
1.789829e+003,2.225468e+003
1.791758e+003,2.202343e+003
1.793686e+003,2.188175e+003
1.795615e+003,2.192518e+003
1.797543e+003,2.203917e+003
1.799472e+003,2.217441e+003
1.801400e+003,2.230932e+003
1.803329e+003,2.240168e+003
1.805257e+003,2.244995e+003
1.807186e+003,2.247127e+003
1.809114e+003,2.243801e+003
1.811043e+003,2.245484e+003
1.812971e+003,2.262592e+003
1.814900e+003,2.276378e+003
1.816828e+003,2.275373e+003
1.818756e+003,2.265847e+003
1.820685e+003,2.252522e+003
1.822613e+003,2.237115e+003
1.824542e+003,2.235206e+003
1.826470e+003,2.253426e+003
1.828399e+003,2.262150e+003
1.830327e+003,2.248326e+003
1.832256e+003,2.235100e+003
1.834184e+003,2.227528e+003
1.836113e+003,2.227539e+003
1.838041e+003,2.247922e+003
1.839970e+003,2.278529e+003
1.841898e+003,2.275321e+003
1.843827e+003,2.221010e+003
1.845755e+003,2.199505e+003
1.847684e+003,2.234459e+003
1.849612e+003,2.266487e+003
1.851541e+003,2.277883e+003
1.853469e+003,2.288915e+003
1.855397e+003,2.317690e+003
1.857326e+003,2.349753e+003
1.859254e+003,2.359237e+003
1.861183e+003,2.345618e+003
1.863111e+003,2.337801e+003
1.865040e+003,2.339941e+003
1.866968e+003,2.340815e+003
1.868897e+003,2.339767e+003
1.870825e+003,2.339042e+003
1.872754e+003,2.342283e+003
1.874682e+003,2.344123e+003
1.876611e+003,2.338438e+003
1.878539e+003,2.328049e+003
1.880468e+003,2.319507e+003
1.882396e+003,2.312269e+003
1.884324e+003,2.314534e+003
1.886253e+003,2.329540e+003
1.888181e+003,2.345521e+003
1.890110e+003,2.363041e+003
1.892038e+003,2.375315e+003
1.893967e+003,2.376310e+003
1.895895e+003,2.371743e+003
1.897824e+003,2.367769e+003
1.899752e+003,2.363297e+003
1.901681e+003,2.351242e+003
1.903609e+003,2.330649e+003
1.905538e+003,2.329399e+003
1.907466e+003,2.361009e+003
1.909395e+003,2.387779e+003
1.911323e+003,2.400635e+003
1.913251e+003,2.403479e+003
1.915180e+003,2.392599e+003
1.917108e+003,2.375980e+003
1.919037e+003,2.360833e+003
1.920965e+003,2.348045e+003
1.922894e+003,2.346066e+003
1.924822e+003,2.358413e+003
1.926751e+003,2.368394e+003
1.928679e+003,2.376338e+003
1.930608e+003,2.381660e+003
1.932536e+003,2.376877e+003
1.934465e+003,2.378468e+003
1.936393e+003,2.404733e+003
1.938322e+003,2.435810e+003
1.940250e+003,2.443240e+003
1.942178e+003,2.429492e+003
1.944107e+003,2.415375e+003
1.946035e+003,2.399701e+003
1.947964e+003,2.389762e+003
1.949892e+003,2.388739e+003
1.951821e+003,2.389886e+003
1.953749e+003,2.393967e+003
1.955678e+003,2.398453e+003
1.957606e+003,2.401993e+003
1.959535e+003,2.405095e+003
1.961463e+003,2.403957e+003
1.963392e+003,2.402405e+003
1.965320e+003,2.419521e+003
1.967249e+003,2.455945e+003
1.969177e+003,2.469613e+003
1.971105e+003,2.447641e+003
1.973034e+003,2.432375e+003
1.974962e+003,2.436990e+003
1.976891e+003,2.448963e+003
1.978819e+003,2.470158e+003
1.980748e+003,2.489831e+003
1.982676e+003,2.498504e+003
1.984605e+003,2.496803e+003
1.986533e+003,2.482699e+003
1.988462e+003,2.454188e+003
1.990390e+003,2.441292e+003
1.992319e+003,2.454123e+003
1.994247e+003,2.465542e+003
1.996176e+003,2.475696e+003
1.998104e+003,2.485800e+003
2.000032e+003,2.493303e+003
2.001961e+003,2.504699e+003
2.003889e+003,2.530541e+003
2.005818e+003,2.557522e+003
2.007746e+003,2.564248e+003
2.009675e+003,2.552995e+003
2.011603e+003,2.540184e+003
2.013532e+003,2.525251e+003
2.015460e+003,2.520438e+003
2.017389e+003,2.530686e+003
2.019317e+003,2.542382e+003
2.021246e+003,2.558030e+003
2.023174e+003,2.566277e+003
2.025103e+003,2.555094e+003
2.027031e+003,2.540061e+003
2.028959e+003,2.532897e+003
2.030888e+003,2.530962e+003
2.032816e+003,2.528119e+003
2.034745e+003,2.524924e+003
2.036673e+003,2.534918e+003
2.038602e+003,2.568573e+003
2.040530e+003,2.586225e+003
2.042459e+003,2.578075e+003
2.044387e+003,2.568866e+003
2.046316e+003,2.565798e+003
2.048244e+003,2.558112e+003
2.050173e+003,2.521741e+003
2.052101e+003,2.495506e+003
2.054030e+003,2.533039e+003
2.055958e+003,2.602492e+003
2.057886e+003,2.626597e+003
2.059815e+003,2.609859e+003
2.061743e+003,2.599889e+003
2.063672e+003,2.599270e+003
2.065600e+003,2.598854e+003
2.067529e+003,2.596624e+003
2.069457e+003,2.595787e+003
2.071386e+003,2.600346e+003
2.073314e+003,2.602424e+003
2.075243e+003,2.592169e+003
2.077171e+003,2.584671e+003
2.079100e+003,2.601944e+003
2.081028e+003,2.628223e+003
2.082957e+003,2.626052e+003
2.084885e+003,2.598830e+003
2.086813e+003,2.595569e+003
2.088742e+003,2.626400e+003
2.090670e+003,2.647812e+003
2.092599e+003,2.657494e+003
2.094527e+003,2.660422e+003
2.096456e+003,2.656816e+003
2.098384e+003,2.648182e+003
2.100313e+003,2.628247e+003
2.102241e+003,2.612507e+003
2.104170e+003,2.613434e+003
2.106098e+003,2.623027e+003
2.108027e+003,2.634171e+003
2.109955e+003,2.644709e+003
2.111884e+003,2.646826e+003
2.113812e+003,2.640313e+003
2.115740e+003,2.635743e+003
2.117669e+003,2.631069e+003
2.119597e+003,2.637898e+003
2.121526e+003,2.672104e+003
2.123454e+003,2.696340e+003
2.125383e+003,2.691431e+003
2.127311e+003,2.688188e+003
2.129240e+003,2.712367e+003
2.131168e+003,2.732335e+003
2.133097e+003,2.707061e+003
2.135025e+003,2.664276e+003
2.136954e+003,2.656601e+003
2.138882e+003,2.677970e+003
2.140811e+003,2.700219e+003
2.142739e+003,2.723502e+003
2.144667e+003,2.736306e+003
2.146596e+003,2.736478e+003
2.148524e+003,2.733097e+003
2.150453e+003,2.725841e+003
2.152381e+003,2.717869e+003
2.154310e+003,2.701057e+003
2.156238e+003,2.694461e+003
2.158167e+003,2.718076e+003
2.160095e+003,2.746302e+003
2.162024e+003,2.757603e+003
2.163952e+003,2.757921e+003
2.165881e+003,2.754601e+003
2.167809e+003,2.748628e+003
2.169738e+003,2.746725e+003
2.171666e+003,2.748329e+003
2.173594e+003,2.741126e+003
2.175523e+003,2.721113e+003
2.177451e+003,2.708831e+003
2.179380e+003,2.711235e+003
2.181308e+003,2.712331e+003
2.183237e+003,2.702896e+003
2.185165e+003,2.701119e+003
2.187094e+003,2.724112e+003
2.189022e+003,2.749156e+003
2.190951e+003,2.757145e+003
2.192879e+003,2.759540e+003
2.194808e+003,2.769047e+003
2.196736e+003,2.783708e+003
2.198665e+003,2.802687e+003
2.200593e+003,2.824577e+003
2.202521e+003,2.828803e+003
2.204450e+003,2.812990e+003
2.206378e+003,2.808122e+003
2.208307e+003,2.821582e+003
2.210235e+003,2.825545e+003
2.212164e+003,2.808337e+003
2.214092e+003,2.798649e+003
2.216021e+003,2.822685e+003
2.217949e+003,2.834888e+003
2.219878e+003,2.802156e+003
2.221806e+003,2.761837e+003
2.223735e+003,2.733708e+003
2.225663e+003,2.721220e+003
2.227592e+003,2.738967e+003
2.229520e+003,2.772910e+003
2.231448e+003,2.782239e+003
2.233377e+003,2.770746e+003
2.235305e+003,2.776567e+003
2.237234e+003,2.801960e+003
2.239162e+003,2.810955e+003
2.241091e+003,2.797768e+003
2.243019e+003,2.789009e+003
2.244948e+003,2.789883e+003
2.246876e+003,2.792510e+003
2.248805e+003,2.792509e+003
2.250733e+003,2.793301e+003
2.252662e+003,2.792672e+003
2.254590e+003,2.795527e+003
2.256519e+003,2.817582e+003
2.258447e+003,2.833976e+003
2.260375e+003,2.808291e+003
2.262304e+003,2.769031e+003
2.264232e+003,2.766603e+003
2.266161e+003,2.790167e+003
2.268089e+003,2.809721e+003
2.270018e+003,2.823524e+003
2.271946e+003,2.821937e+003
2.273875e+003,2.800887e+003
2.275803e+003,2.795530e+003
2.277732e+003,2.821137e+003
2.279660e+003,2.835081e+003
2.281589e+003,2.829172e+003
2.283517e+003,2.821948e+003
2.285446e+003,2.812348e+003
2.287374e+003,2.808031e+003
2.289302e+003,2.815974e+003
2.291231e+003,2.822871e+003
2.293159e+003,2.815491e+003
2.295088e+003,2.808657e+003
2.297016e+003,2.815999e+003
2.298945e+003,2.830875e+003
2.300873e+003,2.852157e+003
2.302802e+003,2.871498e+003
2.304730e+003,2.860621e+003
2.306659e+003,2.825365e+003
2.308587e+003,2.815832e+003
2.310516e+003,2.836703e+003
2.312444e+003,2.844784e+003
2.314373e+003,2.839772e+003
2.316301e+003,2.821597e+003
2.318229e+003,2.782631e+003
2.320158e+003,2.768189e+003
2.322086e+003,2.801841e+003
2.324015e+003,2.824691e+003
2.325943e+003,2.805111e+003
2.327872e+003,2.790889e+003
2.329800e+003,2.800340e+003
2.331729e+003,2.818777e+003
2.333657e+003,2.845315e+003
2.335586e+003,2.867358e+003
2.337514e+003,2.870851e+003
2.339443e+003,2.864790e+003
2.341371e+003,2.856790e+003
2.343300e+003,2.849479e+003
2.345228e+003,2.852361e+003
2.347156e+003,2.860690e+003
2.349085e+003,2.859131e+003
2.351013e+003,2.848647e+003
2.352942e+003,2.830437e+003
2.354870e+003,2.799191e+003
2.356799e+003,2.802597e+003
2.358727e+003,2.863145e+003
2.360656e+003,2.892602e+003
2.362584e+003,2.874816e+003
2.364513e+003,2.864846e+003
2.366441e+003,2.876810e+003
2.368370e+003,2.877590e+003
2.370298e+003,2.843918e+003
2.372227e+003,2.823273e+003
2.374155e+003,2.849362e+003
2.376083e+003,2.873948e+003
2.378012e+003,2.870211e+003
2.379940e+003,2.859447e+003
2.381869e+003,2.852827e+003
2.383797e+003,2.851544e+003
2.385726e+003,2.863801e+003
2.387654e+003,2.877558e+003
2.389583e+003,2.870835e+003
2.391511e+003,2.855592e+003
2.393440e+003,2.857505e+003
2.395368e+003,2.870722e+003
2.397297e+003,2.873010e+003
2.399225e+003,2.865033e+003
2.401154e+003,2.858149e+003
2.403082e+003,2.849547e+003
2.405010e+003,2.864240e+003
2.406939e+003,2.910531e+003
2.408867e+003,2.937500e+003
2.410796e+003,2.939486e+003
2.412724e+003,2.939787e+003
2.414653e+003,2.939334e+003
2.416581e+003,2.946231e+003
2.418510e+003,2.964820e+003
2.420438e+003,2.983595e+003
2.422367e+003,3.006935e+003
2.424295e+003,3.015314e+003
2.426224e+003,2.989924e+003
2.428152e+003,2.964331e+003
2.430081e+003,2.951734e+003
2.432009e+003,2.949551e+003
2.433938e+003,2.969554e+003
2.435866e+003,2.986622e+003
2.437794e+003,2.973052e+003
2.439723e+003,2.953486e+003
2.441651e+003,2.953832e+003
2.443580e+003,2.964751e+003
2.445508e+003,2.975534e+003
2.447437e+003,2.982980e+003
2.449365e+003,2.976302e+003
2.451294e+003,2.961868e+003
2.453222e+003,2.972853e+003
2.455151e+003,3.000193e+003
2.457079e+003,2.993876e+003
2.459008e+003,2.957801e+003
2.460936e+003,2.942496e+003
2.462865e+003,2.953132e+003
2.464793e+003,2.962296e+003
2.466721e+003,2.970179e+003
2.468650e+003,2.972436e+003
2.470578e+003,2.963444e+003
2.472507e+003,2.967755e+003
2.474435e+003,2.992272e+003
2.476364e+003,3.004110e+003
2.478292e+003,2.989232e+003
2.480221e+003,2.984784e+003
2.482149e+003,3.019191e+003
2.484078e+003,3.036397e+003
2.486006e+003,3.008087e+003
2.487935e+003,2.986536e+003
2.489863e+003,2.995052e+003
2.491792e+003,3.001858e+003
2.493720e+003,2.989356e+003
2.495648e+003,2.979671e+003
2.497577e+003,2.988948e+003
2.499505e+003,2.999064e+003
2.501434e+003,3.000459e+003
2.503362e+003,2.996235e+003
2.505291e+003,2.983665e+003
2.507219e+003,2.973797e+003
2.509148e+003,2.982511e+003
2.511076e+003,2.996602e+003
2.513005e+003,2.994925e+003
2.514933e+003,2.990776e+003
2.516862e+003,3.007373e+003
2.518790e+003,3.032108e+003
2.520719e+003,3.047518e+003
2.522647e+003,3.050521e+003
2.524575e+003,3.018174e+003
2.526504e+003,2.967976e+003
2.528432e+003,2.983662e+003
2.530361e+003,3.049422e+003
2.532289e+003,3.073247e+003
2.534218e+003,3.060185e+003
2.536146e+003,3.050555e+003
2.538075e+003,3.045620e+003
2.540003e+003,3.045031e+003
2.541932e+003,3.049941e+003
2.543860e+003,3.052332e+003
2.545789e+003,3.053101e+003
2.547717e+003,3.050206e+003
2.549646e+003,3.043528e+003
2.551574e+003,3.041892e+003
2.553502e+003,3.048583e+003
2.555431e+003,3.038974e+003
2.557359e+003,2.989987e+003
2.559288e+003,2.979837e+003
2.561216e+003,3.048971e+003
2.563145e+003,3.089755e+003
2.565073e+003,3.084747e+003
2.567002e+003,3.084227e+003
2.568930e+003,3.101355e+003
2.570859e+003,3.110153e+003
2.572787e+003,3.104786e+003
2.574716e+003,3.089677e+003
2.576644e+003,3.048586e+003
2.578573e+003,3.024932e+003
2.580501e+003,3.037796e+003
2.582429e+003,3.055982e+003
2.584358e+003,3.080403e+003
2.586287e+003,3.090986e+003
2.588215e+003,3.076378e+003
2.590144e+003,3.054836e+003
2.592072e+003,3.022918e+003
2.594000e+003,3.005719e+003
2.595929e+003,3.030906e+003
2.597857e+003,3.053340e+003
2.599786e+003,3.040435e+003
2.601714e+003,3.027139e+003
2.603643e+003,3.032647e+003
2.605571e+003,3.041802e+003
2.607500e+003,3.049149e+003
2.609428e+003,3.050403e+003
2.611357e+003,3.032632e+003
2.613285e+003,3.020016e+003
2.615214e+003,3.038415e+003
2.617142e+003,3.064518e+003
2.619071e+003,3.084308e+003
2.620999e+003,3.095094e+003
2.622927e+003,3.088929e+003
2.624856e+003,3.078235e+003
2.626784e+003,3.071547e+003
2.628713e+003,3.071547e+003
2.630641e+003,3.088359e+003
2.632570e+003,3.107409e+003
2.634498e+003,3.114146e+003
2.636427e+003,3.109801e+003
2.638355e+003,3.084371e+003
2.640284e+003,3.059162e+003
2.642212e+003,3.070837e+003
2.644141e+003,3.092857e+003
2.646069e+003,3.081022e+003
2.647998e+003,3.055683e+003
2.649926e+003,3.050792e+003
2.651854e+003,3.055176e+003
2.653783e+003,3.050329e+003
2.655711e+003,3.042969e+003
2.657640e+003,3.042688e+003
2.659568e+003,3.049190e+003
2.661497e+003,3.071594e+003
2.663425e+003,3.094005e+003
2.665354e+003,3.067687e+003
2.667282e+003,3.024882e+003
2.669211e+003,3.044672e+003
2.671139e+003,3.092005e+003
2.673068e+003,3.096429e+003
2.674996e+003,3.077368e+003
2.676925e+003,3.078694e+003
2.678853e+003,3.090737e+003
2.680781e+003,3.092894e+003
2.682710e+003,3.086581e+003
2.684638e+003,3.073007e+003
2.686567e+003,3.054705e+003
2.688495e+003,3.030492e+003
2.690424e+003,3.009376e+003
2.692352e+003,3.016757e+003
2.694281e+003,3.042663e+003
2.696209e+003,3.062519e+003
2.698138e+003,3.079111e+003
2.700066e+003,3.104280e+003
2.701995e+003,3.127345e+003
2.703923e+003,3.119767e+003
2.705852e+003,3.093828e+003
2.707780e+003,3.077801e+003
2.709708e+003,3.069098e+003
2.711637e+003,3.060168e+003
2.713565e+003,3.055757e+003
2.715494e+003,3.078258e+003
2.717422e+003,3.109032e+003
2.719351e+003,3.106057e+003
2.721279e+003,3.086502e+003
2.723208e+003,3.087758e+003
2.725136e+003,3.099244e+003
2.727065e+003,3.094468e+003
2.728993e+003,3.083190e+003
2.730922e+003,3.084310e+003
2.732850e+003,3.091028e+003
2.734779e+003,3.086286e+003
2.736707e+003,3.081894e+003
2.738635e+003,3.107585e+003
2.740564e+003,3.144847e+003
2.742492e+003,3.163660e+003
2.744421e+003,3.171167e+003
2.746349e+003,3.177325e+003
2.748278e+003,3.181444e+003
2.750206e+003,3.183464e+003
2.752135e+003,3.180396e+003
2.754063e+003,3.165885e+003
2.755992e+003,3.144505e+003
2.757920e+003,3.115181e+003
2.759849e+003,3.091414e+003
2.761777e+003,3.096576e+003
2.763706e+003,3.109091e+003
2.765634e+003,3.103971e+003
2.767563e+003,3.094827e+003
2.769491e+003,3.093918e+003
2.771419e+003,3.098101e+003
2.773348e+003,3.106098e+003
2.775276e+003,3.113167e+003
2.777205e+003,3.115892e+003
2.779133e+003,3.113218e+003
2.781062e+003,3.087191e+003
2.782990e+003,3.075693e+003
2.784919e+003,3.129363e+003
2.786847e+003,3.179539e+003
2.788776e+003,3.184666e+003
2.790704e+003,3.170137e+003
2.792633e+003,3.143427e+003
2.794561e+003,3.117006e+003
2.796490e+003,3.091030e+003
2.798418e+003,3.082410e+003
2.800346e+003,3.112813e+003
2.802275e+003,3.137081e+003
2.804203e+003,3.123296e+003
2.806132e+003,3.112236e+003
2.808060e+003,3.117280e+003
2.809989e+003,3.128701e+003
2.811917e+003,3.146997e+003
2.813846e+003,3.159707e+003
2.815774e+003,3.161576e+003
2.817703e+003,3.160820e+003
2.819631e+003,3.155936e+003
2.821560e+003,3.158951e+003
2.823488e+003,3.180164e+003
2.825417e+003,3.191622e+003
2.827345e+003,3.186099e+003
2.829273e+003,3.190432e+003
2.831202e+003,3.220537e+003
2.833130e+003,3.223923e+003
2.835059e+003,3.165014e+003
2.836987e+003,3.157389e+003
2.838916e+003,3.213800e+003
2.840844e+003,3.238788e+003
2.842773e+003,3.220476e+003
2.844701e+003,3.212999e+003
2.846630e+003,3.224757e+003
2.848558e+003,3.224010e+003
2.850487e+003,3.211345e+003
2.852415e+003,3.186976e+003
2.854344e+003,3.155507e+003
2.856272e+003,3.166973e+003
2.858200e+003,3.213137e+003
2.860129e+003,3.209827e+003
2.862057e+003,3.167983e+003
2.863986e+003,3.147316e+003
2.865914e+003,3.144919e+003
2.867843e+003,3.159911e+003
2.869771e+003,3.181017e+003
2.871700e+003,3.178994e+003
2.873628e+003,3.167461e+003
2.875557e+003,3.177268e+003
2.877485e+003,3.192313e+003
2.879414e+003,3.188720e+003
2.881342e+003,3.175946e+003
2.883271e+003,3.155842e+003
2.885199e+003,3.142622e+003
2.887127e+003,3.151106e+003
2.889056e+003,3.172348e+003
2.890984e+003,3.209151e+003
2.892913e+003,3.240161e+003
2.894841e+003,3.249992e+003
2.896770e+003,3.250791e+003
2.898698e+003,3.237111e+003
2.900627e+003,3.234421e+003
2.902555e+003,3.266192e+003
2.904484e+003,3.280443e+003
2.906412e+003,3.254192e+003
2.908341e+003,3.226918e+003
2.910269e+003,3.206576e+003
2.912198e+003,3.196329e+003
2.914126e+003,3.201375e+003
2.916054e+003,3.198345e+003
2.917983e+003,3.181164e+003
2.919911e+003,3.177642e+003
2.921840e+003,3.194350e+003
2.923768e+003,3.216463e+003
2.925697e+003,3.246787e+003
2.927625e+003,3.247280e+003
2.929554e+003,3.220959e+003
2.931482e+003,3.207536e+003
2.933411e+003,3.207372e+003
2.935339e+003,3.210984e+003
2.937268e+003,3.218254e+003
2.939196e+003,3.238636e+003
2.941125e+003,3.258580e+003
2.943053e+003,3.237391e+003
2.944981e+003,3.203092e+003
2.946910e+003,3.196792e+003
2.948838e+003,3.210951e+003
2.950767e+003,3.255650e+003
2.952695e+003,3.292511e+003
2.954624e+003,3.281749e+003
2.956552e+003,3.259926e+003
2.958481e+003,3.245170e+003
2.960409e+003,3.239581e+003
2.962338e+003,3.254104e+003
2.964266e+003,3.260965e+003
2.966195e+003,3.246755e+003
2.968123e+003,3.233113e+003
2.970052e+003,3.228786e+003
2.971980e+003,3.223328e+003
2.973908e+003,3.212137e+003
2.975837e+003,3.212037e+003
2.977765e+003,3.225711e+003
2.979694e+003,3.245119e+003
2.981622e+003,3.275245e+003
2.983551e+003,3.265400e+003
2.985479e+003,3.214569e+003
2.987408e+003,3.189310e+003
2.989336e+003,3.186061e+003
2.991265e+003,3.177283e+003
2.993193e+003,3.169222e+003
2.995122e+003,3.193488e+003
2.997050e+003,3.228871e+003
2.998979e+003,3.228830e+003
3.000907e+003,3.210806e+003
3.002835e+003,3.182741e+003
3.004764e+003,3.163503e+003
3.006692e+003,3.185140e+003
3.008621e+003,3.202648e+003
3.010549e+003,3.182419e+003
3.012478e+003,3.156120e+003
3.014406e+003,3.115815e+003
3.016335e+003,3.114333e+003
3.018263e+003,3.223075e+003
3.020192e+003,3.266163e+003
3.022120e+003,3.198841e+003
3.024049e+003,3.154803e+003
3.025977e+003,3.163389e+003
3.027906e+003,3.173324e+003
3.029834e+003,3.181545e+003
3.031762e+003,3.187846e+003
3.033691e+003,3.193971e+003
3.035619e+003,3.225680e+003
3.037548e+003,3.273370e+003
3.039476e+003,3.283946e+003
3.041405e+003,3.278581e+003
3.043333e+003,3.312756e+003
3.045262e+003,3.363333e+003
3.047190e+003,3.400513e+003
3.049119e+003,3.431248e+003
3.051047e+003,3.480231e+003
3.052976e+003,3.495072e+003
3.054904e+003,3.425390e+003
3.056833e+003,3.348648e+003
3.058761e+003,3.299695e+003
3.060689e+003,3.257670e+003
3.062618e+003,3.220559e+003
3.064546e+003,3.189335e+003
3.066475e+003,3.164572e+003
3.068403e+003,3.152232e+003
3.070332e+003,3.153379e+003
3.072260e+003,3.168330e+003
3.074189e+003,3.195104e+003
3.076117e+003,3.201843e+003
3.078046e+003,3.194107e+003
3.079974e+003,3.204778e+003
3.081903e+003,3.221353e+003
3.083831e+003,3.221371e+003
3.085760e+003,3.205501e+003
3.087688e+003,3.156307e+003
3.089616e+003,3.119514e+003
3.091545e+003,3.150256e+003
3.093473e+003,3.181587e+003
3.095402e+003,3.164009e+003
3.097330e+003,3.158133e+003
3.099259e+003,3.193169e+003
3.101187e+003,3.204400e+003
3.103116e+003,3.141114e+003
3.105044e+003,3.129207e+003
3.106973e+003,3.178284e+003
3.108901e+003,3.212880e+003
3.110830e+003,3.227873e+003
3.112758e+003,3.211538e+003
3.114687e+003,3.172675e+003
3.116615e+003,3.142399e+003
3.118543e+003,3.127871e+003
3.120472e+003,3.158844e+003
3.122400e+003,3.194509e+003
3.124329e+003,3.185101e+003
3.126257e+003,3.161985e+003
3.128186e+003,3.142197e+003
3.130114e+003,3.132511e+003
3.132043e+003,3.151835e+003
3.133971e+003,3.156544e+003
3.135900e+003,3.117726e+003
3.137828e+003,3.115921e+003
3.139757e+003,3.163087e+003
3.141685e+003,3.186571e+003
3.143614e+003,3.176186e+003
3.145542e+003,3.166821e+003
3.147470e+003,3.158080e+003
3.149399e+003,3.145675e+003
3.151327e+003,3.137492e+003
3.153256e+003,3.160054e+003
3.155184e+003,3.183286e+003
3.157113e+003,3.158656e+003
3.159041e+003,3.129094e+003
3.160970e+003,3.114487e+003
3.162898e+003,3.115967e+003
3.164827e+003,3.149360e+003
3.166755e+003,3.167931e+003
3.168684e+003,3.163362e+003
3.170612e+003,3.153518e+003
3.172541e+003,3.141731e+003
3.174469e+003,3.132750e+003
3.176397e+003,3.127279e+003
3.178326e+003,3.133134e+003
3.180254e+003,3.142865e+003
3.182183e+003,3.130120e+003
3.184111e+003,3.111502e+003
3.186040e+003,3.117897e+003
3.187968e+003,3.127670e+003
3.189897e+003,3.120786e+003
3.191825e+003,3.116248e+003
3.193754e+003,3.128490e+003
3.195682e+003,3.140033e+003
3.197611e+003,3.149496e+003
3.199539e+003,3.149033e+003
3.201468e+003,3.135629e+003
3.203396e+003,3.123341e+003
3.205324e+003,3.112545e+003
3.207253e+003,3.117591e+003
3.209181e+003,3.127587e+003
3.211110e+003,3.099403e+003
3.213038e+003,3.065887e+003
3.214967e+003,3.084286e+003
3.216895e+003,3.114799e+003
3.218824e+003,3.133156e+003
3.220752e+003,3.139447e+003
3.222681e+003,3.124563e+003
3.224609e+003,3.112748e+003
3.226538e+003,3.105772e+003
3.228466e+003,3.110585e+003
3.230395e+003,3.128344e+003
3.232323e+003,3.152283e+003
3.234251e+003,3.177624e+003
3.236180e+003,3.153142e+003
3.238108e+003,3.106760e+003
3.240037e+003,3.097906e+003
3.241965e+003,3.102373e+003
3.243894e+003,3.092949e+003
3.245822e+003,3.084916e+003
3.247751e+003,3.086178e+003
3.249679e+003,3.091843e+003
3.251608e+003,3.106613e+003
3.253536e+003,3.107860e+003
3.255465e+003,3.092143e+003
3.257393e+003,3.076802e+003
3.259322e+003,3.063877e+003
3.261250e+003,3.066751e+003
3.263178e+003,3.079402e+003
3.265107e+003,3.080938e+003
3.267035e+003,3.083778e+003
3.268964e+003,3.114470e+003
3.270892e+003,3.135785e+003
3.272821e+003,3.117218e+003
3.274749e+003,3.094071e+003
3.276678e+003,3.074703e+003
3.278606e+003,3.061134e+003
3.280535e+003,3.051800e+003
3.282463e+003,3.058619e+003
3.284392e+003,3.080075e+003
3.286320e+003,3.113243e+003
3.288249e+003,3.141555e+003
3.290177e+003,3.109749e+003
3.292105e+003,3.062545e+003
3.294034e+003,3.040488e+003
3.295962e+003,3.038937e+003
3.297891e+003,3.076022e+003
3.299819e+003,3.090056e+003
3.301748e+003,3.057016e+003
3.303676e+003,3.054435e+003
3.305605e+003,3.106321e+003
3.307533e+003,3.095663e+003
3.309462e+003,3.037957e+003
3.311390e+003,3.029395e+003
3.313319e+003,3.051024e+003
3.315247e+003,3.088014e+003
3.317176e+003,3.111689e+003
3.319104e+003,3.089684e+003
3.321032e+003,3.062115e+003
3.322961e+003,3.039280e+003
3.324889e+003,3.033050e+003
3.326818e+003,3.046959e+003
3.328746e+003,3.054846e+003
3.330675e+003,3.056226e+003
3.332603e+003,3.083528e+003
3.334532e+003,3.122616e+003
3.336460e+003,3.138235e+003
3.338389e+003,3.133108e+003
3.340317e+003,3.099711e+003
3.342246e+003,3.067042e+003
3.344174e+003,3.050347e+003
3.346103e+003,3.043673e+003
3.348031e+003,3.049369e+003
3.349959e+003,3.051305e+003
3.351888e+003,3.046840e+003
3.353816e+003,3.074247e+003
3.355745e+003,3.115104e+003
3.357673e+003,3.114957e+003
3.359602e+003,3.092749e+003
3.361530e+003,3.055376e+003
3.363459e+003,3.035581e+003
3.365387e+003,3.071467e+003
3.367316e+003,3.089545e+003
3.369244e+003,3.065338e+003
3.371173e+003,3.041146e+003
3.373101e+003,3.021298e+003
3.375030e+003,3.040677e+003
3.376958e+003,3.085193e+003
3.378886e+003,3.103891e+003
3.380815e+003,3.116099e+003
3.382743e+003,3.153444e+003
3.384672e+003,3.179622e+003
3.386600e+003,3.154645e+003
3.388529e+003,3.154669e+003
3.390457e+003,3.201388e+003
3.392386e+003,3.231630e+003
3.394314e+003,3.239499e+003
3.396243e+003,3.270175e+003
3.398171e+003,3.307967e+003
3.400100e+003,3.317842e+003
3.402028e+003,3.311589e+003
3.403957e+003,3.292948e+003
3.405885e+003,3.281359e+003
3.407813e+003,3.299904e+003
3.409742e+003,3.288805e+003
3.411670e+003,3.230126e+003
3.413599e+003,3.201453e+003
3.415527e+003,3.198582e+003
3.417456e+003,3.174219e+003
3.419384e+003,3.141803e+003
3.421313e+003,3.129300e+003
3.423241e+003,3.122470e+003
3.425170e+003,3.113115e+003
3.427098e+003,3.102160e+003
3.429027e+003,3.085001e+003
3.430955e+003,3.089060e+003
3.432884e+003,3.117540e+003
3.434812e+003,3.127182e+003
3.436740e+003,3.121395e+003
3.438669e+003,3.113351e+003
3.440597e+003,3.104445e+003
3.442526e+003,3.096634e+003
3.444454e+003,3.088428e+003
3.446383e+003,3.072102e+003
3.448311e+003,3.079887e+003
3.450240e+003,3.126535e+003
3.452168e+003,3.157033e+003
3.454097e+003,3.170021e+003
3.456025e+003,3.162267e+003
3.457954e+003,3.147319e+003
3.459882e+003,3.153696e+003
3.461811e+003,3.150621e+003
3.463739e+003,3.111338e+003
3.465667e+003,3.089000e+003
3.467596e+003,3.119908e+003
3.469524e+003,3.102691e+003
3.471453e+003,3.046813e+003
3.473381e+003,3.060848e+003
3.475310e+003,3.110664e+003
3.477238e+003,3.145456e+003
3.479167e+003,3.149876e+003
3.481095e+003,3.081955e+003
3.483024e+003,3.046843e+003
3.484952e+003,3.089598e+003
3.486881e+003,3.107046e+003
3.488809e+003,3.093410e+003
3.490738e+003,3.091115e+003
3.492666e+003,3.097115e+003
3.494594e+003,3.113211e+003
3.496523e+003,3.117744e+003
3.498451e+003,3.074993e+003
3.500380e+003,3.053696e+003
3.502308e+003,3.077876e+003
3.504237e+003,3.087617e+003
3.506165e+003,3.074206e+003
3.508094e+003,3.052709e+003
3.510022e+003,3.036009e+003
3.511951e+003,3.070264e+003
3.513879e+003,3.107329e+003
3.515808e+003,3.107202e+003
3.517736e+003,3.095067e+003
3.519665e+003,3.072760e+003
3.521593e+003,3.075415e+003
3.523521e+003,3.105482e+003
3.525450e+003,3.105695e+003
3.527378e+003,3.098276e+003
3.529307e+003,3.139140e+003
3.531235e+003,3.174406e+003
3.533164e+003,3.160241e+003
3.535092e+003,3.135410e+003
3.537021e+003,3.104260e+003
3.538949e+003,3.095366e+003
3.540878e+003,3.106377e+003
3.542806e+003,3.100370e+003
3.544735e+003,3.089332e+003
3.546663e+003,3.086547e+003
3.548592e+003,3.098458e+003
3.550520e+003,3.138252e+003
3.552448e+003,3.162113e+003
3.554377e+003,3.159668e+003
3.556305e+003,3.133547e+003
3.558234e+003,3.096256e+003
3.560162e+003,3.109712e+003
3.562091e+003,3.132219e+003
3.564019e+003,3.105201e+003
3.565948e+003,3.074302e+003
3.567876e+003,3.045281e+003
3.569805e+003,3.059874e+003
3.571733e+003,3.119164e+003
3.573662e+003,3.135040e+003
3.575590e+003,3.119056e+003
3.577519e+003,3.095785e+003
3.579447e+003,3.077771e+003
3.581376e+003,3.069963e+003
3.583304e+003,3.082725e+003
3.585233e+003,3.127083e+003
3.587161e+003,3.134995e+003
3.589090e+003,3.108220e+003
3.591018e+003,3.121205e+003
3.592947e+003,3.141452e+003
3.594875e+003,3.107006e+003
3.596803e+003,3.080683e+003
3.598732e+003,3.117664e+003
3.600660e+003,3.121436e+003
3.602589e+003,3.082322e+003
3.604517e+003,3.075980e+003
3.606446e+003,3.080993e+003
3.608374e+003,2.990466e+003
3.610303e+003,2.921359e+003
3.612231e+003,3.005181e+003
3.614160e+003,3.069956e+003
3.616088e+003,3.073668e+003
3.618017e+003,3.085863e+003
3.619945e+003,3.109819e+003
3.621874e+003,3.123215e+003
3.623802e+003,3.130809e+003
3.625730e+003,3.142798e+003
3.627659e+003,3.141881e+003
3.629587e+003,3.112131e+003
3.631516e+003,3.102784e+003
3.633444e+003,3.119596e+003
3.635373e+003,3.095002e+003
3.637301e+003,3.065741e+003
3.639230e+003,3.136082e+003
3.641158e+003,3.189212e+003
3.643087e+003,3.118583e+003
3.645015e+003,3.079866e+003
3.646944e+003,3.096827e+003
3.648872e+003,3.102424e+003
3.650801e+003,3.098065e+003
3.652729e+003,3.100654e+003
3.654657e+003,3.097448e+003
3.656586e+003,3.057023e+003
3.658514e+003,3.055851e+003
3.660443e+003,3.117393e+003
3.662371e+003,3.127751e+003
3.664300e+003,3.097534e+003
3.666228e+003,3.115754e+003
3.668157e+003,3.133225e+003
3.670085e+003,3.076007e+003
3.672014e+003,3.052227e+003
3.673942e+003,3.100409e+003
3.675871e+003,3.097183e+003
3.677799e+003,3.045662e+003
3.679728e+003,3.060684e+003
3.681656e+003,3.099293e+003
3.683584e+003,3.121576e+003
3.685513e+003,3.121609e+003
3.687441e+003,3.091519e+003
3.689370e+003,3.084072e+003
3.691298e+003,3.102016e+003
3.693227e+003,3.115752e+003
3.695155e+003,3.124405e+003
3.697084e+003,3.133943e+003
3.699012e+003,3.125067e+003
3.700941e+003,3.085372e+003
3.702869e+003,3.047727e+003
3.704798e+003,3.020128e+003
3.706726e+003,3.062555e+003
3.708655e+003,3.123870e+003
3.710583e+003,3.139854e+003
3.712511e+003,3.126436e+003
3.714440e+003,3.080138e+003
3.716368e+003,3.052278e+003
3.718297e+003,3.047616e+003
3.720225e+003,3.045409e+003
3.722154e+003,3.053030e+003
3.724082e+003,3.098726e+003
3.726011e+003,3.119670e+003
3.727939e+003,3.079388e+003
3.729868e+003,3.058728e+003
3.731796e+003,3.063180e+003
3.733725e+003,3.054777e+003
3.735653e+003,3.051377e+003
3.737582e+003,3.094408e+003
3.739510e+003,3.108408e+003
3.741438e+003,3.049395e+003
3.743367e+003,3.036318e+003
3.745295e+003,3.069977e+003
3.747224e+003,3.088102e+003
3.749152e+003,3.092103e+003
3.751081e+003,3.078319e+003
3.753009e+003,3.062969e+003
3.754938e+003,3.046069e+003
3.756866e+003,3.067367e+003
3.758795e+003,3.109132e+003
3.760723e+003,3.076286e+003
3.762652e+003,3.022479e+003
3.764580e+003,2.983159e+003
3.766509e+003,2.977734e+003
3.768437e+003,3.014942e+003
3.770365e+003,3.024998e+003
3.772294e+003,3.021283e+003
3.774222e+003,3.075284e+003
3.776151e+003,3.105760e+003
3.778079e+003,3.022538e+003
3.780008e+003,2.999586e+003
3.781936e+003,3.063477e+003
3.783865e+003,3.069990e+003
3.785793e+003,3.047406e+003
3.787722e+003,3.065323e+003
3.789650e+003,3.072846e+003
3.791579e+003,3.030972e+003
3.793507e+003,3.018543e+003
3.795436e+003,3.040468e+003
3.797364e+003,3.097109e+003
3.799292e+003,3.148056e+003
3.801221e+003,3.127450e+003
3.803149e+003,3.099824e+003
3.805078e+003,3.086696e+003
3.807006e+003,3.063951e+003
3.808935e+003,3.037513e+003
3.810863e+003,3.033000e+003
3.812792e+003,3.043735e+003
3.814720e+003,3.074260e+003
3.816649e+003,3.094926e+003
3.818577e+003,3.098303e+003
3.820506e+003,3.087034e+003
3.822434e+003,3.066746e+003
3.824363e+003,3.047013e+003
3.826291e+003,3.029685e+003
3.828219e+003,3.008065e+003
3.830148e+003,3.035265e+003
3.832076e+003,3.108130e+003
3.834005e+003,3.102304e+003
3.835933e+003,3.073127e+003
3.837862e+003,3.080648e+003
3.839790e+003,3.097505e+003
3.841719e+003,3.118005e+003
3.843647e+003,3.116477e+003
3.845576e+003,3.101193e+003
3.847504e+003,3.099291e+003
3.849433e+003,3.095949e+003
3.851361e+003,3.079960e+003
3.853290e+003,3.058641e+003
3.855218e+003,3.036342e+003
3.857146e+003,3.055135e+003
3.859075e+003,3.092728e+003
3.861003e+003,3.137869e+003
3.862932e+003,3.141408e+003
3.864860e+003,3.067032e+003
3.866789e+003,3.045552e+003
3.868717e+003,3.064946e+003
3.870646e+003,3.080628e+003
3.872574e+003,3.093416e+003
3.874503e+003,3.108117e+003
3.876431e+003,3.096287e+003
3.878360e+003,3.058911e+003
3.880288e+003,3.078945e+003
3.882217e+003,3.115289e+003
3.884145e+003,3.130309e+003
3.886073e+003,3.110405e+003
3.888002e+003,3.040562e+003
3.889930e+003,3.029279e+003
3.891859e+003,3.054426e+003
3.893787e+003,3.055210e+003
3.895716e+003,3.050718e+003
3.897644e+003,3.049272e+003
3.899573e+003,3.051336e+003
3.901501e+003,3.055592e+003
3.903430e+003,3.050893e+003
3.905358e+003,3.049250e+003
3.907287e+003,3.065868e+003
3.909215e+003,3.083569e+003
3.911144e+003,3.098815e+003
3.913072e+003,3.084846e+003
3.915000e+003,3.062711e+003
3.916929e+003,3.074165e+003
3.918857e+003,3.084154e+003
3.920786e+003,3.075883e+003
3.922714e+003,3.083041e+003
3.924643e+003,3.094957e+003
3.926571e+003,3.072358e+003
3.928500e+003,3.038796e+003
3.930428e+003,2.997249e+003
3.932357e+003,2.999619e+003
3.934285e+003,3.042429e+003
3.936214e+003,3.064107e+003
3.938142e+003,3.075074e+003
3.940071e+003,3.084037e+003
3.941999e+003,3.085535e+003
3.943927e+003,3.076574e+003
3.945856e+003,3.063909e+003
3.947784e+003,3.055122e+003
3.949713e+003,3.066258e+003
3.951641e+003,3.078114e+003
3.953570e+003,3.086998e+003
3.955498e+003,3.072428e+003
3.957427e+003,3.047921e+003
3.959355e+003,3.040425e+003
3.961284e+003,3.056301e+003
3.963212e+003,3.116855e+003
3.965141e+003,3.137211e+003
3.967069e+003,3.122246e+003
3.968998e+003,3.104935e+003
3.970926e+003,3.100876e+003
3.972854e+003,3.133690e+003
3.974783e+003,3.133083e+003
3.976711e+003,3.098788e+003
3.978640e+003,3.075340e+003
3.980568e+003,3.059811e+003
3.982497e+003,3.042612e+003
3.984425e+003,3.059972e+003
3.986354e+003,3.120578e+003
3.988282e+003,3.123157e+003
3.990211e+003,3.112251e+003
3.992139e+003,3.155048e+003
3.994068e+003,3.175169e+003
3.995996e+003,3.155149e+003
3.997925e+003,3.157631e+003
3.999853e+003,3.160860e+003
4.001781e+003,3.113112e+003
4.003710e+003,3.084262e+003
4.005638e+003,3.098529e+003
4.007567e+003,3.099870e+003
4.009495e+003,3.093327e+003
4.011424e+003,3.096499e+003
4.013352e+003,3.092558e+003
4.015281e+003,3.056307e+003
4.017209e+003,3.081075e+003
4.019138e+003,3.130839e+003
4.021066e+003,3.106270e+003
4.022995e+003,3.081583e+003
4.024923e+003,3.090336e+003
4.026852e+003,3.113731e+003
4.028780e+003,3.138366e+003
4.030708e+003,3.122689e+003
4.032637e+003,3.093291e+003
4.034565e+003,3.054050e+003
4.036494e+003,3.065350e+003
4.038422e+003,3.111789e+003
4.040351e+003,3.113845e+003
4.042279e+003,3.102142e+003
4.044208e+003,3.093039e+003
4.046136e+003,3.081341e+003
4.048065e+003,3.070007e+003
4.049993e+003,3.077068e+003
4.051922e+003,3.079619e+003
4.053850e+003,3.060693e+003
4.055779e+003,3.057146e+003
4.057707e+003,3.064494e+003
4.059635e+003,3.025122e+003
4.061564e+003,3.000503e+003
4.063492e+003,3.036792e+003
4.065421e+003,3.068877e+003
4.067349e+003,3.088875e+003
4.069278e+003,3.098267e+003
4.071206e+003,3.095869e+003
4.073135e+003,3.079125e+003
4.075063e+003,3.047365e+003
4.076992e+003,3.010218e+003
4.078920e+003,3.006901e+003
4.080849e+003,3.023912e+003
4.082777e+003,3.063899e+003
4.084706e+003,3.067606e+003
4.086634e+003,3.040841e+003
4.088563e+003,3.014805e+003
4.090491e+003,3.008427e+003
4.092419e+003,3.038933e+003
4.094348e+003,3.047585e+003
4.096276e+003,3.033811e+003
4.098205e+003,2.999040e+003
4.100133e+003,2.978174e+003
4.102062e+003,2.997981e+003
4.103990e+003,2.995331e+003
4.105919e+003,2.978552e+003
4.107847e+003,2.992932e+003
4.109776e+003,3.006971e+003
4.111704e+003,3.000243e+003
4.113633e+003,3.001850e+003
4.115561e+003,3.005723e+003
4.117490e+003,2.984149e+003
4.119418e+003,2.992409e+003
4.121347e+003,3.061821e+003
4.123275e+003,3.027343e+003
4.125204e+003,2.950789e+003
4.127132e+003,2.972803e+003
4.129061e+003,2.991976e+003
4.130989e+003,2.978198e+003
4.132917e+003,2.974377e+003
4.134846e+003,2.982280e+003
4.136774e+003,3.007375e+003
4.138703e+003,3.029917e+003
4.140631e+003,3.045562e+003
4.142560e+003,3.013587e+003
4.144488e+003,2.968492e+003
4.146417e+003,2.941814e+003
4.148345e+003,2.950697e+003
4.150273e+003,2.995763e+003
4.152202e+003,2.991516e+003
4.154130e+003,2.970227e+003
4.156059e+003,2.953680e+003
4.157987e+003,2.945891e+003
4.159916e+003,2.946241e+003
4.161844e+003,2.956306e+003
4.163773e+003,2.960183e+003
4.165701e+003,2.940514e+003
4.167630e+003,2.940218e+003
4.169558e+003,2.951766e+003
4.171487e+003,2.944687e+003
4.173415e+003,2.936272e+003
4.175344e+003,2.933954e+003
4.177272e+003,2.920579e+003
4.179201e+003,2.913601e+003
4.181129e+003,2.965806e+003
4.183058e+003,2.989087e+003
4.184986e+003,2.963844e+003
4.186915e+003,2.958258e+003
4.188843e+003,2.955628e+003
4.190771e+003,2.922258e+003
4.192700e+003,2.925935e+003
4.194628e+003,2.969843e+003
4.196557e+003,2.935892e+003
4.198485e+003,2.911552e+003
4.200414e+003,2.982694e+003
4.202342e+003,2.973202e+003
4.204271e+003,2.899096e+003
4.206199e+003,2.896592e+003
4.208127e+003,2.919719e+003
4.210056e+003,2.955655e+003
4.211984e+003,2.952367e+003
4.213913e+003,2.929778e+003
4.215841e+003,2.934346e+003
4.217770e+003,2.937412e+003
4.219698e+003,2.932043e+003
4.221627e+003,2.918690e+003
4.223555e+003,2.905946e+003
4.225484e+003,2.905994e+003
4.227412e+003,2.901917e+003
4.229341e+003,2.894118e+003
4.231269e+003,2.907212e+003
4.233198e+003,2.915258e+003
4.235126e+003,2.898706e+003
4.237055e+003,2.863504e+003
4.238983e+003,2.832642e+003
4.240912e+003,2.873016e+003
4.242840e+003,2.909872e+003
4.244769e+003,2.918936e+003
4.246697e+003,2.902214e+003
4.248625e+003,2.873805e+003
4.250554e+003,2.863666e+003
