1.159199e+002,5.281382e+002
1.178484e+002,6.122160e+002
1.197769e+002,6.599388e+002
1.217053e+002,6.682244e+002
1.236338e+002,6.719982e+002
1.255623e+002,6.664432e+002
1.274907e+002,6.595883e+002
1.294192e+002,6.589457e+002
1.313477e+002,6.756587e+002
1.332761e+002,6.845053e+002
1.352046e+002,6.783622e+002
1.371331e+002,6.551540e+002
1.390615e+002,6.211808e+002
1.409900e+002,5.657063e+002
1.429185e+002,4.992950e+002
1.448469e+002,4.413949e+002
1.467754e+002,3.966171e+002
1.487039e+002,3.566715e+002
1.506323e+002,3.191884e+002
1.525608e+002,2.841653e+002
1.544893e+002,2.527739e+002
1.564177e+002,2.248938e+002
1.583462e+002,2.007368e+002
1.602747e+002,1.817461e+002
1.622031e+002,1.699188e+002
1.641316e+002,1.606847e+002
1.660601e+002,1.512978e+002
1.679885e+002,1.411368e+002
1.699170e+002,1.321427e+002
1.718455e+002,1.248419e+002
1.737739e+002,1.191699e+002
1.757024e+002,1.130236e+002
1.776309e+002,1.052821e+002
1.795593e+002,9.758974e+001
1.814878e+002,9.134018e+001
1.834163e+002,8.572338e+001
1.853447e+002,8.232173e+001
1.872732e+002,8.118613e+001
1.892017e+002,8.216493e+001
1.911301e+002,8.647892e+001
1.930586e+002,9.862778e+001
1.949871e+002,1.130553e+002
1.969155e+002,1.223359e+002
1.988440e+002,1.254750e+002
2.007725e+002,1.256162e+002
2.027009e+002,1.230751e+002
2.046294e+002,1.179538e+002
2.065579e+002,1.114130e+002
2.084864e+002,1.033518e+002
2.104148e+002,9.400003e+001
2.123433e+002,8.375278e+001
2.142718e+002,7.083183e+001
2.162002e+002,5.904374e+001
2.181287e+002,4.987361e+001
2.200572e+002,4.408908e+001
2.219856e+002,3.928569e+001
2.239141e+002,3.577466e+001
2.258426e+002,3.311506e+001
2.277710e+002,2.993167e+001
2.296995e+002,2.510818e+001
2.316280e+002,2.106457e+001
2.335564e+002,1.887884e+001
2.354849e+002,2.070761e+001
2.374134e+002,2.156920e+001
2.393418e+002,2.036011e+001
2.412703e+002,1.815602e+001
2.431988e+002,1.730788e+001
2.451272e+002,1.975627e+001
2.470557e+002,2.229088e+001
2.489842e+002,2.331963e+001
2.509126e+002,2.223993e+001
2.528411e+002,2.086144e+001
2.547696e+002,1.894284e+001
2.566980e+002,1.681191e+001
2.586265e+002,1.540272e+001
2.605550e+002,1.536792e+001
2.624834e+002,1.564369e+001
2.644119e+002,1.569928e+001
2.663404e+002,1.545131e+001
2.682688e+002,1.534564e+001
2.701973e+002,1.570170e+001
2.721258e+002,1.636110e+001
2.740542e+002,1.655830e+001
2.759827e+002,1.588044e+001
2.779112e+002,1.507283e+001
2.798396e+002,1.449838e+001
2.817681e+002,1.412752e+001
2.836966e+002,1.398113e+001
2.856250e+002,1.397124e+001
2.875535e+002,1.414079e+001
2.894820e+002,1.478545e+001
2.914104e+002,1.586614e+001
2.933389e+002,1.737705e+001
2.952674e+002,1.932544e+001
2.971958e+002,2.171939e+001
2.991243e+002,2.447339e+001
3.010528e+002,2.817306e+001
3.029813e+002,3.226734e+001
3.049097e+002,3.513597e+001
3.068382e+002,3.732261e+001
3.087667e+002,3.771238e+001
3.106951e+002,3.533067e+001
3.126236e+002,2.876575e+001
3.145521e+002,2.401900e+001
3.164805e+002,2.258810e+001
3.184090e+002,2.322070e+001
3.203375e+002,2.316461e+001
3.222659e+002,2.205804e+001
3.241944e+002,2.081055e+001
3.261229e+002,1.966288e+001
3.280513e+002,1.837320e+001
3.299798e+002,1.794064e+001
3.319083e+002,1.858899e+001
3.338367e+002,2.001914e+001
3.357652e+002,2.172644e+001
3.376937e+002,2.371372e+001
3.396221e+002,2.597114e+001
3.415506e+002,2.828605e+001
3.434791e+002,3.050709e+001
3.454075e+002,3.379708e+001
3.473360e+002,3.937762e+001
3.492645e+002,4.531862e+001
3.511929e+002,5.044139e+001
3.531214e+002,5.594649e+001
3.550499e+002,5.801471e+001
3.569783e+002,5.462025e+001
3.589068e+002,4.581255e+001
3.608353e+002,3.863278e+001
3.627637e+002,3.314873e+001
3.646922e+002,2.931965e+001
3.666207e+002,2.712410e+001
3.685491e+002,2.767766e+001
3.704776e+002,2.753695e+001
3.724061e+002,2.580336e+001
3.743345e+002,2.291226e+001
3.762630e+002,2.051597e+001
3.781915e+002,1.866641e+001
3.801199e+002,1.727065e+001
3.820484e+002,1.623826e+001
3.839769e+002,1.566027e+001
3.859053e+002,1.527608e+001
3.878338e+002,1.518612e+001
3.897623e+002,1.524038e+001
3.916907e+002,1.512294e+001
3.936192e+002,1.446239e+001
3.955477e+002,1.428075e+001
3.974761e+002,1.501135e+001
3.994046e+002,1.688137e+001
4.013331e+002,1.840920e+001
4.032615e+002,1.986443e+001
4.051900e+002,2.084044e+001
4.071185e+002,2.107318e+001
4.090469e+002,2.057992e+001
4.109754e+002,1.941773e+001
4.129039e+002,1.668842e+001
4.148323e+002,1.292754e+001
4.167608e+002,1.160865e+001
4.186893e+002,1.495839e+001
4.206177e+002,1.855992e+001
4.225462e+002,2.039345e+001
4.244747e+002,2.031793e+001
4.264032e+002,1.976608e+001
4.283316e+002,1.815357e+001
4.302601e+002,1.641002e+001
4.321886e+002,1.625222e+001
4.341170e+002,1.827394e+001
4.360455e+002,2.064758e+001
4.379740e+002,2.315524e+001
4.399024e+002,2.576947e+001
4.418309e+002,2.745260e+001
4.437594e+002,2.529698e+001
4.456878e+002,2.402730e+001
4.476163e+002,2.765800e+001
4.495448e+002,3.699683e+001
4.514732e+002,4.713220e+001
4.534017e+002,5.959855e+001
4.553302e+002,7.219955e+001
4.572586e+002,7.928058e+001
4.591871e+002,7.805968e+001
4.611156e+002,7.387675e+001
4.630440e+002,6.696262e+001
4.649725e+002,5.739643e+001
4.669010e+002,4.840562e+001
4.688294e+002,3.947214e+001
4.707579e+002,3.187202e+001
4.726864e+002,2.663294e+001
4.746148e+002,2.559351e+001
4.765433e+002,2.495428e+001
4.784718e+002,2.429626e+001
4.804002e+002,2.394105e+001
4.823287e+002,2.472842e+001
4.842572e+002,2.855731e+001
4.861856e+002,3.108175e+001
4.881141e+002,3.012048e+001
4.900426e+002,2.415223e+001
4.919710e+002,1.996587e+001
4.938995e+002,1.808555e+001
4.958280e+002,1.764651e+001
4.977564e+002,1.784525e+001
4.996849e+002,1.876228e+001
5.016134e+002,2.005895e+001
5.035418e+002,2.174956e+001
5.054703e+002,2.374684e+001
5.073988e+002,2.573055e+001
5.093272e+002,2.767409e+001
5.112557e+002,2.962611e+001
5.131842e+002,3.198536e+001
5.151127e+002,3.473631e+001
5.170411e+002,3.621502e+001
5.189696e+002,3.563602e+001
5.208981e+002,3.400994e+001
5.228265e+002,3.198376e+001
5.247550e+002,2.944841e+001
5.266835e+002,2.676192e+001
5.286119e+002,2.333392e+001
5.305404e+002,1.987825e+001
5.324689e+002,1.765437e+001
5.343973e+002,1.753839e+001
5.363258e+002,1.782271e+001
5.382543e+002,1.826536e+001
5.401827e+002,1.887650e+001
5.421112e+002,1.883480e+001
5.440397e+002,1.716181e+001
5.459681e+002,1.560408e+001
5.478966e+002,1.532320e+001
5.498251e+002,1.688322e+001
5.517535e+002,1.784894e+001
5.536820e+002,1.725240e+001
5.556105e+002,1.614813e+001
5.575389e+002,1.645700e+001
5.594674e+002,1.923507e+001
5.613959e+002,2.114486e+001
5.633243e+002,2.058414e+001
5.652528e+002,1.815970e+001
5.671813e+002,1.624459e+001
5.691097e+002,1.446618e+001
5.710382e+002,1.361219e+001
5.729667e+002,1.460916e+001
5.748951e+002,1.768450e+001
5.768236e+002,1.970494e+001
5.787521e+002,1.901990e+001
5.806805e+002,1.803001e+001
5.826090e+002,1.849280e+001
5.845375e+002,2.058993e+001
5.864659e+002,2.405312e+001
5.883944e+002,2.949228e+001
5.903229e+002,3.609821e+001
5.922513e+002,4.279546e+001
5.941798e+002,5.147474e+001
5.961083e+002,5.665718e+001
5.980367e+002,5.391206e+001
5.999652e+002,4.430204e+001
6.018937e+002,4.030645e+001
6.038221e+002,4.454291e+001
6.057506e+002,5.170500e+001
6.076791e+002,6.280641e+001
6.096075e+002,7.791716e+001
6.115360e+002,8.471326e+001
6.134645e+002,7.560048e+001
6.153929e+002,6.140580e+001
6.173214e+002,4.995281e+001
6.192499e+002,4.259216e+001
6.211783e+002,3.577659e+001
6.231068e+002,2.856046e+001
6.250353e+002,2.201700e+001
6.269637e+002,1.784815e+001
6.288922e+002,1.656292e+001
6.308207e+002,1.606887e+001
6.327491e+002,1.567394e+001
6.346776e+002,1.547166e+001
6.366061e+002,1.601981e+001
6.385345e+002,1.828945e+001
6.404630e+002,2.031824e+001
6.423915e+002,2.146560e+001
6.443199e+002,2.176223e+001
6.462484e+002,2.173270e+001
6.481769e+002,2.100841e+001
6.501053e+002,2.038479e+001
6.520338e+002,2.041567e+001
6.539623e+002,2.161275e+001
6.558907e+002,2.198170e+001
6.578192e+002,1.974589e+001
6.597477e+002,1.774308e+001
6.616761e+002,1.932936e+001
6.636046e+002,2.525625e+001
6.655331e+002,3.012068e+001
6.674615e+002,3.200426e+001
6.693900e+002,3.221918e+001
6.713185e+002,3.230686e+001
6.732469e+002,3.267266e+001
6.751754e+002,3.241244e+001
6.771039e+002,3.109864e+001
6.790323e+002,2.905900e+001
6.809608e+002,2.712905e+001
6.828893e+002,2.485201e+001
6.848177e+002,2.349131e+001
6.867462e+002,2.405057e+001
6.886747e+002,2.639113e+001
6.906031e+002,2.741862e+001
6.925316e+002,2.669606e+001
6.944601e+002,2.514834e+001
6.963885e+002,2.230678e+001
6.983170e+002,1.834776e+001
7.002455e+002,1.634481e+001
7.021740e+002,1.829129e+001
7.041024e+002,2.074091e+001
7.060309e+002,2.159655e+001
7.079594e+002,2.017788e+001
7.098878e+002,1.927994e+001
7.118163e+002,1.942347e+001
7.137448e+002,1.980046e+001
7.156732e+002,1.960832e+001
7.176017e+002,1.875446e+001
7.195302e+002,1.812604e+001
7.214586e+002,1.693010e+001
7.233871e+002,1.660054e+001
7.253156e+002,1.868014e+001
7.272440e+002,2.413552e+001
7.291725e+002,3.060860e+001
7.311010e+002,3.829298e+001
7.330294e+002,4.674018e+001
7.349579e+002,5.609782e+001
7.368864e+002,6.935091e+001
7.388149e+002,7.656305e+001
7.407433e+002,7.059215e+001
7.426718e+002,5.648156e+001
7.446003e+002,4.487230e+001
7.465287e+002,3.657266e+001
7.484572e+002,3.025401e+001
7.503857e+002,2.645131e+001
7.523141e+002,2.471495e+001
7.542426e+002,2.279295e+001
7.561711e+002,2.028927e+001
7.580995e+002,1.821880e+001
7.600280e+002,1.654446e+001
7.619565e+002,1.541789e+001
7.638849e+002,1.612761e+001
7.658134e+002,2.074084e+001
7.677419e+002,2.533930e+001
7.696703e+002,2.853152e+001
7.715988e+002,3.030794e+001
7.735273e+002,3.271690e+001
7.754557e+002,3.798771e+001
7.773842e+002,4.141828e+001
7.793127e+002,3.944786e+001
7.812411e+002,3.256633e+001
7.831696e+002,2.804190e+001
7.850981e+002,2.857740e+001
7.870266e+002,2.995672e+001
7.889550e+002,3.021033e+001
7.908835e+002,2.897950e+001
7.928120e+002,2.914485e+001
7.947404e+002,2.873679e+001
7.966689e+002,3.145744e+001
7.985974e+002,3.983345e+001
8.005258e+002,5.379927e+001
8.024543e+002,6.949292e+001
8.043828e+002,8.825737e+001
8.063112e+002,1.070625e+002
8.082397e+002,1.248534e+002
8.101682e+002,1.423993e+002
8.120966e+002,1.549558e+002
8.140251e+002,1.600825e+002
8.159536e+002,1.620237e+002
8.178820e+002,1.645668e+002
8.198105e+002,1.680895e+002
8.217390e+002,1.668262e+002
8.236674e+002,1.580738e+002
8.255959e+002,1.452726e+002
8.275244e+002,1.293408e+002
8.294528e+002,1.076217e+002
8.313813e+002,8.951582e+001
8.333098e+002,7.452084e+001
8.352382e+002,6.314318e+001
8.371667e+002,5.664756e+001
8.390952e+002,5.493992e+001
8.410236e+002,5.418884e+001
8.429521e+002,5.519139e+001
8.448806e+002,5.571444e+001
8.468090e+002,5.414760e+001
8.487375e+002,4.960138e+001
8.506660e+002,4.517503e+001
8.525944e+002,4.062999e+001
8.545229e+002,3.641063e+001
8.564514e+002,3.296817e+001
8.583798e+002,3.031325e+001
8.603083e+002,2.783301e+001
8.622368e+002,2.545637e+001
8.641652e+002,2.323423e+001
8.660937e+002,2.095660e+001
8.680222e+002,1.831941e+001
8.699506e+002,1.715007e+001
8.718791e+002,1.870676e+001
8.738076e+002,2.069948e+001
8.757360e+002,2.157113e+001
8.776645e+002,2.114580e+001
8.795930e+002,2.115395e+001
8.815214e+002,2.250303e+001
8.834499e+002,2.356750e+001
8.853784e+002,2.294957e+001
8.873068e+002,2.059759e+001
8.892353e+002,1.956116e+001
8.911638e+002,2.064405e+001
8.930922e+002,2.277163e+001
8.950207e+002,2.577380e+001
8.969492e+002,2.978451e+001
8.988776e+002,3.342914e+001
9.008061e+002,3.744858e+001
9.027346e+002,4.042482e+001
9.046630e+002,4.150850e+001
9.065915e+002,4.098052e+001
9.085200e+002,3.947068e+001
9.104484e+002,3.631688e+001
9.123769e+002,3.318788e+001
9.143054e+002,3.087771e+001
9.162338e+002,2.933743e+001
9.181623e+002,2.738593e+001
9.200908e+002,2.317198e+001
9.220192e+002,2.054931e+001
9.239477e+002,2.211121e+001
9.258762e+002,2.647528e+001
9.278046e+002,2.849354e+001
9.297331e+002,2.632046e+001
9.316616e+002,2.488372e+001
9.335900e+002,2.629714e+001
9.355185e+002,2.982771e+001
9.374470e+002,3.358626e+001
9.393754e+002,3.939178e+001
9.413039e+002,4.290359e+001
9.432324e+002,4.187769e+001
9.451608e+002,3.849542e+001
9.470893e+002,3.752936e+001
9.490178e+002,4.061069e+001
9.509462e+002,4.143724e+001
9.528747e+002,3.569261e+001
9.548032e+002,2.828426e+001
9.567316e+002,2.485951e+001
9.586601e+002,2.661113e+001
9.605886e+002,2.837490e+001
9.625170e+002,2.892770e+001
9.644455e+002,2.930057e+001
9.663740e+002,3.005382e+001
9.683024e+002,3.024248e+001
9.702309e+002,3.362991e+001
9.721594e+002,3.917476e+001
9.740878e+002,4.877778e+001
9.760163e+002,6.309678e+001
9.779448e+002,8.192740e+001
9.798733e+002,1.079414e+002
9.818018e+002,1.379411e+002
9.837302e+002,1.803123e+002
9.856587e+002,2.421939e+002
9.875872e+002,3.237271e+002
9.895156e+002,4.008797e+002
9.914441e+002,5.067572e+002
9.933726e+002,5.718851e+002
9.953010e+002,5.658687e+002
9.972295e+002,4.989216e+002
9.991580e+002,4.124814e+002
1.001086e+003,2.881211e+002
1.003015e+003,1.825537e+002
1.004943e+003,1.198958e+002
1.006872e+003,8.693338e+001
1.008800e+003,6.636909e+001
1.010729e+003,6.084246e+001
1.012657e+003,6.160306e+001
1.014586e+003,6.835284e+001
1.016514e+003,7.911724e+001
1.018443e+003,9.241327e+001
1.020371e+003,1.104397e+002
1.022300e+003,1.254438e+002
1.024228e+003,1.412231e+002
1.026156e+003,1.507728e+002
1.028085e+003,1.474539e+002
1.030013e+003,1.325231e+002
1.031942e+003,1.142461e+002
1.033870e+003,8.922769e+001
1.035799e+003,6.671123e+001
1.037727e+003,5.075909e+001
1.039656e+003,4.110247e+001
1.041584e+003,3.357871e+001
1.043513e+003,2.890078e+001
1.045441e+003,2.556881e+001
1.047370e+003,2.352550e+001
1.049298e+003,2.263744e+001
1.051227e+003,2.277267e+001
1.053155e+003,2.436651e+001
1.055083e+003,2.564610e+001
1.057012e+003,2.581340e+001
1.058940e+003,2.568404e+001
1.060869e+003,2.642216e+001
1.062797e+003,2.842909e+001
1.064726e+003,2.868934e+001
1.066654e+003,2.433745e+001
1.068583e+003,2.010787e+001
1.070511e+003,1.892671e+001
1.072440e+003,2.116500e+001
1.074368e+003,2.238570e+001
1.076297e+003,2.255749e+001
1.078225e+003,2.190609e+001
1.080154e+003,1.960489e+001
1.082082e+003,1.658459e+001
1.084010e+003,1.543103e+001
1.085939e+003,1.667362e+001
1.087867e+003,1.840166e+001
1.089796e+003,2.040588e+001
1.091724e+003,2.237664e+001
1.093653e+003,2.384312e+001
1.095581e+003,2.453598e+001
1.097510e+003,2.555668e+001
1.099438e+003,2.772500e+001
1.101367e+003,2.962366e+001
1.103295e+003,3.029947e+001
1.105224e+003,2.965253e+001
1.107152e+003,2.877576e+001
1.109081e+003,2.645895e+001
1.111009e+003,2.526504e+001
1.112938e+003,2.702935e+001
1.114866e+003,3.050289e+001
1.116794e+003,3.285357e+001
1.118723e+003,3.386751e+001
1.120651e+003,3.408214e+001
1.122580e+003,3.296874e+001
1.124508e+003,3.149786e+001
1.126437e+003,3.066878e+001
1.128365e+003,3.068835e+001
1.130294e+003,3.073651e+001
1.132222e+003,2.878692e+001
1.134151e+003,2.873034e+001
1.136079e+003,3.375050e+001
1.138008e+003,4.352466e+001
1.139936e+003,5.167826e+001
1.141865e+003,5.862594e+001
1.143793e+003,6.336223e+001
1.145721e+003,6.407064e+001
1.147650e+003,6.277518e+001
1.149578e+003,6.286344e+001
1.151507e+003,6.492860e+001
1.153435e+003,6.578555e+001
1.155364e+003,6.397519e+001
1.157292e+003,6.127636e+001
1.159221e+003,5.863639e+001
1.161149e+003,5.603997e+001
1.163078e+003,5.384308e+001
1.165006e+003,4.966048e+001
1.166935e+003,4.860459e+001
1.168863e+003,5.405528e+001
1.170792e+003,6.375192e+001
1.172720e+003,7.158972e+001
1.174648e+003,7.759902e+001
1.176577e+003,8.201466e+001
1.178505e+003,8.632590e+001
1.180434e+003,8.787109e+001
1.182362e+003,8.263688e+001
1.184291e+003,7.097610e+001
1.186219e+003,6.322806e+001
1.188148e+003,5.929904e+001
1.190076e+003,6.199086e+001
1.192005e+003,7.279528e+001
1.193933e+003,9.074973e+001
1.195862e+003,1.129021e+002
1.197790e+003,1.441238e+002
1.199719e+003,1.718300e+002
1.201647e+003,2.012641e+002
1.203575e+003,2.223457e+002
1.205504e+003,2.238611e+002
1.207432e+003,2.030829e+002
1.209361e+003,1.802200e+002
1.211289e+003,1.527468e+002
1.213218e+003,1.266566e+002
1.215146e+003,1.042210e+002
1.217075e+003,8.511956e+001
1.219003e+003,6.849941e+001
1.220932e+003,5.416200e+001
1.222860e+003,4.302392e+001
1.224789e+003,3.686604e+001
1.226717e+003,3.287297e+001
1.228646e+003,2.898249e+001
1.230574e+003,2.497878e+001
1.232502e+003,2.323083e+001
1.234431e+003,2.659130e+001
1.236359e+003,2.896175e+001
1.238288e+003,2.779526e+001
1.240216e+003,2.477068e+001
1.242145e+003,2.341556e+001
1.244073e+003,2.458614e+001
1.246002e+003,2.524392e+001
1.247930e+003,2.394145e+001
1.249859e+003,2.314459e+001
1.251787e+003,2.566843e+001
1.253716e+003,3.039848e+001
1.255644e+003,3.205356e+001
1.257573e+003,2.895412e+001
1.259501e+003,2.578969e+001
1.261429e+003,2.375937e+001
1.263358e+003,2.284872e+001
1.265286e+003,2.333627e+001
1.267215e+003,2.544519e+001
1.269143e+003,2.750950e+001
1.271072e+003,2.923956e+001
1.273000e+003,3.097931e+001
1.274929e+003,3.203699e+001
1.276857e+003,3.314677e+001
1.278786e+003,3.678003e+001
1.280714e+003,4.556832e+001
1.282643e+003,5.313747e+001
1.284571e+003,5.913146e+001
1.286500e+003,6.406538e+001
1.288428e+003,6.646124e+001
1.290356e+003,6.701844e+001
1.292285e+003,7.440691e+001
1.294213e+003,9.368166e+001
1.296142e+003,1.108105e+002
1.298070e+003,1.234882e+002
1.299999e+003,1.295765e+002
1.301927e+003,1.249146e+002
1.303856e+003,1.086912e+002
1.305784e+003,9.538058e+001
1.307713e+003,8.898468e+001
1.309641e+003,8.350381e+001
1.311570e+003,7.544044e+001
1.313498e+003,6.645442e+001
1.315427e+003,6.110344e+001
1.317355e+003,6.098334e+001
1.319283e+003,6.107187e+001
1.321212e+003,6.012389e+001
1.323140e+003,5.996667e+001
1.325069e+003,6.188449e+001
1.326997e+003,6.573816e+001
1.328926e+003,7.016838e+001
1.330854e+003,7.817142e+001
1.332783e+003,8.207853e+001
1.334711e+003,7.813863e+001
1.336640e+003,7.134637e+001
1.338568e+003,6.627692e+001
1.340497e+003,6.277638e+001
1.342425e+003,5.886671e+001
1.344354e+003,5.375424e+001
1.346282e+003,4.946659e+001
1.348210e+003,4.746001e+001
1.350139e+003,4.636933e+001
1.352068e+003,4.453609e+001
1.353996e+003,4.189229e+001
1.355924e+003,3.952829e+001
1.357853e+003,3.812554e+001
1.359781e+003,3.625490e+001
1.361710e+003,3.250639e+001
1.363638e+003,2.817810e+001
1.365567e+003,2.591419e+001
1.367495e+003,2.616022e+001
1.369424e+003,2.731061e+001
1.371352e+003,3.067692e+001
1.373281e+003,3.335530e+001
1.375209e+003,3.347236e+001
1.377138e+003,3.184215e+001
1.379066e+003,3.109527e+001
1.380995e+003,3.149903e+001
1.382923e+003,3.223780e+001
1.384851e+003,3.364094e+001
1.386780e+003,3.499384e+001
1.388708e+003,3.451604e+001
1.390637e+003,3.346963e+001
1.392565e+003,3.699820e+001
1.394494e+003,4.638088e+001
1.396422e+003,5.627617e+001
1.398351e+003,6.875078e+001
1.400279e+003,7.829222e+001
1.402208e+003,7.993849e+001
1.404136e+003,7.541670e+001
1.406065e+003,7.038783e+001
1.407993e+003,6.516735e+001
1.409922e+003,5.939651e+001
1.411850e+003,5.160563e+001
1.413778e+003,4.449846e+001
1.415707e+003,3.911082e+001
1.417635e+003,3.567750e+001
1.419564e+003,3.687266e+001
1.421492e+003,4.472697e+001
1.423421e+003,5.350473e+001
1.425349e+003,6.379575e+001
1.427278e+003,7.312610e+001
1.429206e+003,7.914587e+001
1.431135e+003,8.185598e+001
1.433063e+003,8.445463e+001
1.434992e+003,9.006357e+001
1.436920e+003,9.105377e+001
1.438849e+003,8.341615e+001
1.440777e+003,7.342031e+001
1.442705e+003,6.637791e+001
1.444634e+003,6.214527e+001
1.446562e+003,5.640775e+001
1.448491e+003,4.638130e+001
1.450419e+003,3.973961e+001
1.452348e+003,4.037508e+001
1.454276e+003,4.281241e+001
1.456205e+003,4.267420e+001
1.458133e+003,4.032553e+001
1.460062e+003,3.779603e+001
1.461990e+003,3.430426e+001
1.463919e+003,3.290457e+001
1.465847e+003,3.631957e+001
1.467776e+003,4.051503e+001
1.469704e+003,4.202244e+001
1.471632e+003,4.185098e+001
1.473561e+003,4.382474e+001
1.475489e+003,4.899906e+001
1.477418e+003,5.325798e+001
1.479346e+003,5.524766e+001
1.481275e+003,5.619166e+001
1.483203e+003,5.723685e+001
1.485132e+003,5.791932e+001
1.487060e+003,5.632176e+001
1.488989e+003,5.172997e+001
1.490917e+003,4.712672e+001
1.492846e+003,4.268481e+001
1.494774e+003,3.888291e+001
1.496703e+003,3.616951e+001
1.498631e+003,3.428427e+001
1.500559e+003,3.239101e+001
1.502488e+003,3.005641e+001
1.504416e+003,2.895586e+001
1.506345e+003,2.989345e+001
1.508273e+003,3.123792e+001
1.510202e+003,3.264731e+001
1.512130e+003,3.392998e+001
1.514059e+003,3.446732e+001
1.515987e+003,3.329320e+001
1.517916e+003,3.444670e+001
1.519844e+003,4.032723e+001
1.521773e+003,4.534324e+001
1.523701e+003,4.827837e+001
1.525630e+003,4.915321e+001
1.527558e+003,4.737179e+001
1.529486e+003,4.249009e+001
1.531415e+003,3.875922e+001
1.533343e+003,3.576974e+001
1.535272e+003,3.443064e+001
1.537200e+003,3.665711e+001
1.539129e+003,3.924767e+001
1.541057e+003,3.885575e+001
1.542986e+003,3.593137e+001
1.544914e+003,3.451099e+001
1.546843e+003,3.525240e+001
1.548771e+003,3.581343e+001
1.550700e+003,3.504117e+001
1.552628e+003,3.461876e+001
1.554557e+003,3.665936e+001
1.556485e+003,3.968560e+001
1.558413e+003,3.931245e+001
1.560342e+003,3.466544e+001
1.562270e+003,3.215037e+001
1.564199e+003,3.319947e+001
1.566127e+003,3.609219e+001
1.568056e+003,3.886274e+001
1.569984e+003,4.373359e+001
1.571913e+003,5.534800e+001
1.573841e+003,7.325517e+001
1.575770e+003,8.668275e+001
1.577698e+003,9.497231e+001
1.579627e+003,9.753259e+001
1.581555e+003,8.796780e+001
1.583484e+003,7.802508e+001
1.585412e+003,7.655744e+001
1.587340e+003,8.260571e+001
1.589269e+003,9.310294e+001
1.591197e+003,1.094664e+002
1.593126e+003,1.240426e+002
1.595054e+003,1.374017e+002
1.596983e+003,1.453882e+002
1.598911e+003,1.454653e+002
1.600840e+003,1.389959e+002
1.602768e+003,1.272010e+002
1.604697e+003,1.095572e+002
1.606625e+003,9.356760e+001
1.608554e+003,7.891586e+001
1.610482e+003,6.824931e+001
1.612411e+003,6.408032e+001
1.614339e+003,6.288258e+001
1.616267e+003,6.249722e+001
1.618196e+003,6.270427e+001
1.620124e+003,6.113098e+001
1.622053e+003,5.668259e+001
1.623981e+003,5.358344e+001
1.625910e+003,5.523066e+001
1.627838e+003,5.544414e+001
1.629767e+003,4.969891e+001
1.631695e+003,4.111464e+001
1.633624e+003,3.576904e+001
1.635552e+003,3.409803e+001
1.637481e+003,3.251062e+001
1.639409e+003,3.007963e+001
1.641338e+003,2.896954e+001
1.643266e+003,3.113082e+001
1.645194e+003,3.349001e+001
1.647123e+003,3.343439e+001
1.649051e+003,3.136735e+001
1.650980e+003,2.944988e+001
1.652908e+003,2.728775e+001
1.654837e+003,2.640370e+001
1.656765e+003,2.810733e+001
1.658694e+003,2.972534e+001
1.660622e+003,3.023065e+001
1.662551e+003,3.023696e+001
1.664479e+003,3.081221e+001
1.666408e+003,3.208262e+001
1.668336e+003,3.148506e+001
1.670265e+003,2.738950e+001
1.672193e+003,2.472070e+001
1.674121e+003,2.571131e+001
1.676050e+003,2.655627e+001
1.677978e+003,2.411700e+001
1.679907e+003,2.043973e+001
1.681835e+003,2.008869e+001
1.683764e+003,2.392071e+001
1.685692e+003,2.685880e+001
1.687621e+003,2.876028e+001
1.689549e+003,2.973888e+001
1.691478e+003,2.955978e+001
1.693406e+003,2.876013e+001
1.695335e+003,2.756606e+001
1.697263e+003,2.608270e+001
1.699192e+003,2.446329e+001
1.701120e+003,2.228346e+001
1.703048e+003,2.153218e+001
1.704977e+003,2.426380e+001
1.706905e+003,2.570136e+001
1.708834e+003,2.365758e+001
1.710762e+003,2.068979e+001
1.712691e+003,1.818731e+001
1.714619e+003,1.652740e+001
1.716548e+003,1.834842e+001
1.718476e+003,2.583336e+001
1.720405e+003,2.950851e+001
1.722333e+003,2.474689e+001
1.724262e+003,2.125806e+001
1.726190e+003,2.302983e+001
1.728119e+003,2.643054e+001
1.730047e+003,2.829814e+001
1.731975e+003,2.872046e+001
1.733904e+003,2.833577e+001
1.735832e+003,2.686774e+001
1.737761e+003,2.554283e+001
1.739689e+003,2.478907e+001
1.741618e+003,2.380375e+001
1.743546e+003,2.065701e+001
1.745475e+003,1.848506e+001
1.747403e+003,2.196089e+001
1.749332e+003,2.986142e+001
1.751260e+003,3.246187e+001
1.753189e+003,2.833419e+001
1.755117e+003,2.483318e+001
1.757046e+003,2.265417e+001
1.758974e+003,2.179340e+001
1.760902e+003,2.396705e+001
1.762831e+003,2.598305e+001
1.764759e+003,2.355586e+001
1.766688e+003,1.827491e+001
1.768616e+003,1.822331e+001
1.770545e+003,2.485817e+001
1.772473e+003,2.826925e+001
1.774402e+003,2.476679e+001
1.776330e+003,2.183383e+001
1.778259e+003,2.346653e+001
1.780187e+003,2.584106e+001
1.782116e+003,2.532630e+001
1.784044e+003,2.325969e+001
1.785973e+003,2.391681e+001
1.787901e+003,2.765596e+001
1.789829e+003,2.921073e+001
1.791758e+003,2.679672e+001
1.793686e+003,2.477625e+001
1.795615e+003,2.481496e+001
1.797543e+003,2.559561e+001
1.799472e+003,2.653561e+001
1.801400e+003,2.742136e+001
1.803329e+003,2.776933e+001
1.805257e+003,2.759254e+001
1.807186e+003,2.751519e+001
1.809114e+003,2.760727e+001
1.811043e+003,2.774748e+001
1.812971e+003,2.768309e+001
1.814900e+003,2.791887e+001
1.816828e+003,2.962299e+001
1.818756e+003,3.128062e+001
1.820685e+003,3.012249e+001
1.822613e+003,2.665474e+001
1.824542e+003,2.498562e+001
1.826470e+003,2.582846e+001
1.828399e+003,2.630282e+001
1.830327e+003,2.632313e+001
1.832256e+003,2.543141e+001
1.834184e+003,2.180135e+001
1.836113e+003,1.860460e+001
1.838041e+003,1.990075e+001
1.839970e+003,2.417431e+001
1.841898e+003,2.569710e+001
1.843827e+003,2.342679e+001
1.845755e+003,2.227413e+001
1.847684e+003,2.388529e+001
1.849612e+003,2.416977e+001
1.851541e+003,2.026062e+001
1.853469e+003,1.711325e+001
1.855397e+003,1.884203e+001
1.857326e+003,2.277509e+001
1.859254e+003,2.413787e+001
1.861183e+003,2.287431e+001
1.863111e+003,2.355946e+001
1.865040e+003,2.863342e+001
1.866968e+003,3.028688e+001
1.868897e+003,2.427123e+001
1.870825e+003,1.979280e+001
1.872754e+003,2.032217e+001
1.874682e+003,2.278129e+001
1.876611e+003,2.519096e+001
1.878539e+003,2.740397e+001
1.880468e+003,2.910820e+001
1.882396e+003,3.035245e+001
1.884324e+003,2.999311e+001
1.886253e+003,2.700327e+001
1.888181e+003,2.521076e+001
1.890110e+003,2.697314e+001
1.892038e+003,2.803738e+001
1.893967e+003,2.532282e+001
1.895895e+003,2.155305e+001
1.897824e+003,1.936414e+001
1.899752e+003,1.844126e+001
1.901681e+003,1.771433e+001
1.903609e+003,1.710774e+001
1.905538e+003,1.774595e+001
1.907466e+003,2.036292e+001
1.909395e+003,2.269382e+001
1.911323e+003,2.426669e+001
1.913251e+003,2.513597e+001
1.915180e+003,2.508743e+001
1.917108e+003,2.451241e+001
1.919037e+003,2.340211e+001
1.920965e+003,2.207189e+001
1.922894e+003,2.279759e+001
1.924822e+003,2.661597e+001
1.926751e+003,2.847832e+001
1.928679e+003,2.652736e+001
1.930608e+003,2.514258e+001
1.932536e+003,2.535761e+001
1.934465e+003,2.608185e+001
1.936393e+003,2.734285e+001
1.938322e+003,2.831495e+001
1.940250e+003,2.728986e+001
1.942178e+003,2.472669e+001
1.944107e+003,2.403465e+001
1.946035e+003,2.551853e+001
1.947964e+003,2.775669e+001
1.949892e+003,3.167438e+001
1.951821e+003,3.434134e+001
1.953749e+003,3.433419e+001
1.955678e+003,3.389734e+001
1.957606e+003,3.461366e+001
1.959535e+003,3.506044e+001
1.961463e+003,3.291164e+001
1.963392e+003,2.924893e+001
1.965320e+003,2.791790e+001
1.967249e+003,2.904550e+001
1.969177e+003,2.873205e+001
1.971105e+003,2.570033e+001
1.973034e+003,2.415615e+001
1.974962e+003,2.655751e+001
1.976891e+003,2.870697e+001
1.978819e+003,2.788669e+001
1.980748e+003,2.670872e+001
1.982676e+003,2.809475e+001
1.984605e+003,3.083290e+001
1.986533e+003,3.188364e+001
1.988462e+003,3.112874e+001
1.990390e+003,3.065717e+001
1.992319e+003,3.038552e+001
1.994247e+003,3.055910e+001
1.996176e+003,3.248484e+001
1.998104e+003,3.301702e+001
2.000032e+003,2.887168e+001
2.001961e+003,2.580976e+001
2.003889e+003,2.941128e+001
2.005818e+003,3.520470e+001
2.007746e+003,3.603722e+001
2.009675e+003,3.289025e+001
2.011603e+003,3.222093e+001
2.013532e+003,3.431684e+001
2.015460e+003,3.583453e+001
2.017389e+003,3.641385e+001
2.019317e+003,3.653649e+001
2.021246e+003,3.612072e+001
2.023174e+003,3.563786e+001
2.025103e+003,3.532209e+001
2.027031e+003,3.502235e+001
2.028959e+003,3.482574e+001
2.030888e+003,3.444781e+001
2.032816e+003,3.301471e+001
2.034745e+003,3.064752e+001
2.036673e+003,2.952295e+001
2.038602e+003,3.011920e+001
2.040530e+003,3.055662e+001
2.042459e+003,3.167286e+001
2.044387e+003,3.128303e+001
2.046316e+003,2.607879e+001
2.048244e+003,2.305749e+001
2.050173e+003,2.809011e+001
2.052101e+003,3.428386e+001
2.054030e+003,3.386803e+001
2.055958e+003,3.013419e+001
2.057886e+003,3.150135e+001
2.059815e+003,3.728216e+001
2.061743e+003,4.012741e+001
2.063672e+003,3.951923e+001
2.065600e+003,3.756259e+001
2.067529e+003,3.347951e+001
2.069457e+003,3.109958e+001
2.071386e+003,3.301263e+001
2.073314e+003,3.485427e+001
2.075243e+003,3.330669e+001
2.077171e+003,3.191410e+001
2.079100e+003,3.492563e+001
2.081028e+003,3.989465e+001
2.082957e+003,4.206910e+001
2.084885e+003,4.160334e+001
2.086813e+003,4.039378e+001
2.088742e+003,3.785781e+001
2.090670e+003,3.622506e+001
2.092599e+003,3.492248e+001
2.094527e+003,3.572839e+001
2.096456e+003,4.131300e+001
2.098384e+003,4.546925e+001
2.100313e+003,4.509579e+001
2.102241e+003,4.358284e+001
2.104170e+003,4.307269e+001
2.106098e+003,4.276267e+001
2.108027e+003,4.135308e+001
2.109955e+003,3.932196e+001
2.111884e+003,3.804373e+001
2.113812e+003,3.753329e+001
2.115740e+003,3.787829e+001
2.117669e+003,3.979604e+001
2.119597e+003,4.028457e+001
2.121526e+003,3.611755e+001
2.123454e+003,3.493245e+001
2.125383e+003,4.215593e+001
2.127311e+003,4.783817e+001
2.129240e+003,4.567393e+001
2.131168e+003,4.129278e+001
2.133097e+003,3.919136e+001
2.135025e+003,3.863616e+001
2.136954e+003,3.821916e+001
2.138882e+003,3.813814e+001
2.140811e+003,4.003126e+001
2.142739e+003,4.391861e+001
2.144667e+003,4.476417e+001
2.146596e+003,4.117983e+001
2.148524e+003,3.917150e+001
2.150453e+003,4.046526e+001
2.152381e+003,4.231723e+001
2.154310e+003,4.500146e+001
2.156238e+003,4.659844e+001
2.158167e+003,4.602798e+001
2.160095e+003,4.406188e+001
2.162024e+003,4.011295e+001
2.163952e+003,3.598995e+001
2.165881e+003,3.527143e+001
2.167809e+003,3.732234e+001
2.169738e+003,3.892735e+001
2.171666e+003,4.010762e+001
2.173594e+003,3.811780e+001
2.175523e+003,3.164940e+001
2.177451e+003,2.972066e+001
2.179380e+003,3.632504e+001
2.181308e+003,4.025971e+001
2.183237e+003,3.492890e+001
2.185165e+003,3.119656e+001
2.187094e+003,3.582982e+001
2.189022e+003,4.134568e+001
2.190951e+003,4.265911e+001
2.192879e+003,4.153945e+001
2.194808e+003,3.928819e+001
2.196736e+003,3.664707e+001
2.198665e+003,3.582042e+001
2.200593e+003,3.675272e+001
2.202521e+003,3.779504e+001
2.204450e+003,3.897132e+001
2.206378e+003,4.027470e+001
2.208307e+003,4.241710e+001
2.210235e+003,4.099353e+001
2.212164e+003,3.261867e+001
2.214092e+003,2.659255e+001
2.216021e+003,2.759872e+001
2.217949e+003,2.953584e+001
2.219878e+003,3.000607e+001
2.221806e+003,2.987605e+001
2.223735e+003,2.888531e+001
2.225663e+003,2.840331e+001
2.227592e+003,3.090617e+001
2.229520e+003,3.519123e+001
2.231448e+003,3.809990e+001
2.233377e+003,3.970310e+001
2.235305e+003,4.016487e+001
2.237234e+003,3.945910e+001
2.239162e+003,4.056826e+001
2.241091e+003,4.430029e+001
2.243019e+003,4.675352e+001
2.244948e+003,4.702502e+001
2.246876e+003,4.643390e+001
2.248805e+003,4.423682e+001
2.250733e+003,4.270915e+001
2.252662e+003,4.336394e+001
2.254590e+003,4.414700e+001
2.256519e+003,4.390351e+001
2.258447e+003,4.306493e+001
2.260375e+003,4.113023e+001
2.262304e+003,3.948113e+001
2.264232e+003,4.178092e+001
2.266161e+003,4.607358e+001
2.268089e+003,4.589701e+001
2.270018e+003,4.169372e+001
2.271946e+003,3.751348e+001
2.273875e+003,3.314287e+001
2.275803e+003,3.299844e+001
2.277732e+003,4.058071e+001
2.279660e+003,4.501326e+001
2.281589e+003,4.409011e+001
2.283517e+003,4.221727e+001
2.285446e+003,3.855128e+001
2.287374e+003,3.622917e+001
2.289302e+003,3.673302e+001
2.291231e+003,3.824672e+001
2.293159e+003,3.995261e+001
2.295088e+003,4.207776e+001
2.297016e+003,4.546037e+001
2.298945e+003,4.888720e+001
2.300873e+003,5.100871e+001
2.302802e+003,5.176792e+001
2.304730e+003,5.099146e+001
2.306659e+003,4.871482e+001
2.308587e+003,4.442157e+001
2.310516e+003,3.726885e+001
2.312444e+003,3.578735e+001
2.314373e+003,4.105399e+001
2.316301e+003,4.579199e+001
2.318229e+003,4.966624e+001
2.320158e+003,5.183116e+001
2.322086e+003,5.150195e+001
2.324015e+003,5.112557e+001
2.325943e+003,5.149411e+001
2.327872e+003,5.193169e+001
2.329800e+003,5.243020e+001
2.331729e+003,5.259612e+001
2.333657e+003,5.276347e+001
2.335586e+003,5.185540e+001
2.337514e+003,4.736533e+001
2.339443e+003,4.254623e+001
2.341371e+003,4.239987e+001
2.343300e+003,4.442610e+001
2.345228e+003,4.235296e+001
2.347156e+003,3.856540e+001
2.349085e+003,4.218535e+001
2.351013e+003,5.243918e+001
2.352942e+003,5.676201e+001
2.354870e+003,5.401665e+001
2.356799e+003,5.279892e+001
2.358727e+003,5.408548e+001
2.360656e+003,5.388256e+001
2.362584e+003,5.087688e+001
2.364513e+003,5.006355e+001
2.366441e+003,5.311053e+001
2.368370e+003,5.594737e+001
2.370298e+003,5.790593e+001
2.372227e+003,5.850233e+001
2.374155e+003,5.641801e+001
2.376083e+003,5.443943e+001
2.378012e+003,5.381738e+001
2.379940e+003,5.402903e+001
2.381869e+003,5.612112e+001
2.383797e+003,5.744887e+001
2.385726e+003,5.364043e+001
2.387654e+003,4.872397e+001
2.389583e+003,4.904968e+001
2.391511e+003,5.222934e+001
2.393440e+003,5.329080e+001
2.395368e+003,5.309814e+001
2.397297e+003,5.563697e+001
2.399225e+003,6.045655e+001
2.401154e+003,6.089357e+001
2.403082e+003,5.607695e+001
2.405010e+003,5.403628e+001
2.406939e+003,5.569977e+001
2.408867e+003,5.507646e+001
2.410796e+003,5.104101e+001
2.412724e+003,4.886047e+001
2.414653e+003,4.918493e+001
2.416581e+003,5.205559e+001
2.418510e+003,6.005123e+001
2.420438e+003,6.552850e+001
2.422367e+003,6.544218e+001
2.424295e+003,6.384279e+001
2.426224e+003,6.150751e+001
2.428152e+003,5.875818e+001
2.430081e+003,5.395125e+001
2.432009e+003,5.111219e+001
2.433938e+003,5.459502e+001
2.435866e+003,5.858461e+001
2.437794e+003,5.791793e+001
2.439723e+003,5.581429e+001
2.441651e+003,5.599037e+001
2.443580e+003,5.684477e+001
2.445508e+003,5.589831e+001
2.447437e+003,5.372874e+001
2.449365e+003,5.079789e+001
2.451294e+003,4.792999e+001
2.453222e+003,4.988614e+001
2.455151e+003,5.479785e+001
2.457079e+003,5.197801e+001
2.459008e+003,4.237350e+001
2.460936e+003,4.070910e+001
2.462865e+003,4.875003e+001
2.464793e+003,5.432432e+001
2.466721e+003,5.790679e+001
2.468650e+003,5.655289e+001
2.470578e+003,4.748381e+001
2.472507e+003,4.550772e+001
2.474435e+003,5.440471e+001
2.476364e+003,5.992760e+001
2.478292e+003,5.865470e+001
2.480221e+003,5.605376e+001
2.482149e+003,5.138648e+001
2.484078e+003,4.911251e+001
2.486006e+003,5.124551e+001
2.487935e+003,5.441158e+001
2.489863e+003,6.087463e+001
2.491792e+003,6.321349e+001
2.493720e+003,5.372986e+001
2.495648e+003,4.707291e+001
2.497577e+003,5.573913e+001
2.499505e+003,6.418872e+001
2.501434e+003,6.082691e+001
2.503362e+003,5.451742e+001
2.505291e+003,5.096289e+001
2.507219e+003,4.989257e+001
2.509148e+003,5.311840e+001
2.511076e+003,5.685180e+001
2.513005e+003,5.501114e+001
2.514933e+003,5.171283e+001
2.516862e+003,5.413522e+001
2.518790e+003,5.860403e+001
2.520719e+003,5.705800e+001
2.522647e+003,5.251118e+001
2.524575e+003,5.391693e+001
2.526504e+003,5.935741e+001
2.528432e+003,6.070581e+001
2.530361e+003,5.870409e+001
2.532289e+003,5.730396e+001
2.534218e+003,5.654881e+001
2.536146e+003,5.621484e+001
2.538075e+003,5.632903e+001
2.540003e+003,5.834002e+001
2.541932e+003,6.263213e+001
2.543860e+003,6.564375e+001
2.545789e+003,6.752971e+001
2.547717e+003,6.715085e+001
2.549646e+003,6.437545e+001
2.551574e+003,5.973668e+001
2.553502e+003,5.231769e+001
2.555431e+003,5.024720e+001
2.557359e+003,5.748091e+001
2.559288e+003,6.175135e+001
2.561216e+003,5.963328e+001
2.563145e+003,5.892121e+001
2.565073e+003,6.052462e+001
2.567002e+003,6.205650e+001
2.568930e+003,6.268393e+001
2.570859e+003,6.475146e+001
2.572787e+003,7.029162e+001
2.574716e+003,7.424084e+001
2.576644e+003,7.639414e+001
2.578573e+003,7.483455e+001
2.580501e+003,6.444849e+001
2.582429e+003,5.769832e+001
2.584358e+003,6.009596e+001
2.586287e+003,6.220162e+001
2.588215e+003,5.996568e+001
2.590144e+003,5.747825e+001
2.592072e+003,5.585302e+001
2.594000e+003,5.559736e+001
2.595929e+003,5.762238e+001
2.597857e+003,6.018616e+001
2.599786e+003,6.345464e+001
2.601714e+003,6.548537e+001
2.603643e+003,6.430519e+001
2.605571e+003,6.281231e+001
2.607500e+003,6.387536e+001
2.609428e+003,6.417816e+001
2.611357e+003,5.872913e+001
2.613285e+003,5.453856e+001
2.615214e+003,6.124009e+001
2.617142e+003,6.741833e+001
2.619071e+003,5.965049e+001
2.620999e+003,5.063469e+001
2.622927e+003,5.194473e+001
2.624856e+003,5.684978e+001
2.626784e+003,6.077513e+001
2.628713e+003,6.234229e+001
2.630641e+003,5.763253e+001
2.632570e+003,5.191534e+001
2.634498e+003,5.172851e+001
2.636427e+003,5.423265e+001
2.638355e+003,5.726696e+001
2.640284e+003,5.961259e+001
2.642212e+003,5.839925e+001
2.644141e+003,5.648185e+001
2.646069e+003,5.923929e+001
2.647998e+003,6.332521e+001
2.649926e+003,6.232911e+001
2.651854e+003,5.955825e+001
2.653783e+003,6.139763e+001
2.655711e+003,6.463919e+001
2.657640e+003,6.399664e+001
2.659568e+003,6.123244e+001
2.661497e+003,5.875398e+001
2.663425e+003,5.712577e+001
2.665354e+003,5.848362e+001
2.667282e+003,6.098427e+001
2.669211e+003,5.991124e+001
2.671139e+003,5.751725e+001
2.673068e+003,5.917466e+001
2.674996e+003,6.229979e+001
2.676925e+003,5.999416e+001
2.678853e+003,5.536517e+001
2.680781e+003,5.649171e+001
2.682710e+003,6.090030e+001
2.684638e+003,6.325771e+001
2.686567e+003,6.385599e+001
2.688495e+003,6.256256e+001
2.690424e+003,6.056966e+001
2.692352e+003,6.136108e+001
2.694281e+003,6.344527e+001
2.696209e+003,6.274645e+001
2.698138e+003,6.033097e+001
2.700066e+003,5.769489e+001
2.701995e+003,5.614563e+001
2.703923e+003,6.008574e+001
2.705852e+003,6.643079e+001
2.707780e+003,6.741544e+001
2.709708e+003,6.499598e+001
2.711637e+003,6.360400e+001
2.713565e+003,6.308035e+001
2.715494e+003,6.351654e+001
2.717422e+003,6.427488e+001
2.719351e+003,6.379722e+001
2.721279e+003,6.285176e+001
2.723208e+003,6.347003e+001
2.725136e+003,6.463464e+001
2.727065e+003,6.276365e+001
2.728993e+003,6.060561e+001
2.730922e+003,6.592381e+001
2.732850e+003,7.329244e+001
2.734779e+003,7.122157e+001
2.736707e+003,6.590210e+001
2.738635e+003,7.106752e+001
2.740564e+003,7.953352e+001
2.742492e+003,7.802368e+001
2.744421e+003,7.153885e+001
2.746349e+003,6.654420e+001
2.748278e+003,6.277017e+001
2.750206e+003,5.976439e+001
2.752135e+003,5.781599e+001
2.754063e+003,5.805243e+001
2.755992e+003,5.894101e+001
2.757920e+003,5.750250e+001
2.759849e+003,5.650323e+001
2.761777e+003,5.979350e+001
2.763706e+003,6.444704e+001
2.765634e+003,6.895647e+001
2.767563e+003,7.116049e+001
2.769491e+003,6.474644e+001
2.771419e+003,5.926639e+001
2.773348e+003,6.743339e+001
2.775276e+003,7.587849e+001
2.777205e+003,7.156936e+001
2.779133e+003,6.392171e+001
2.781062e+003,5.895289e+001
2.782990e+003,5.648074e+001
2.784919e+003,5.800932e+001
2.786847e+003,5.985783e+001
2.788776e+003,5.899454e+001
2.790704e+003,5.869768e+001
2.792633e+003,6.245921e+001
2.794561e+003,6.541123e+001
2.796490e+003,6.401991e+001
2.798418e+003,6.223249e+001
2.800346e+003,6.044566e+001
2.802275e+003,6.110580e+001
2.804203e+003,6.846954e+001
2.806132e+003,7.367477e+001
2.808060e+003,7.186228e+001
2.809989e+003,6.902274e+001
2.811917e+003,6.503268e+001
2.813846e+003,6.462149e+001
2.815774e+003,7.192347e+001
2.817703e+003,7.634286e+001
2.819631e+003,7.118636e+001
2.821560e+003,6.905108e+001
2.823488e+003,7.371928e+001
2.825417e+003,7.731883e+001
2.827345e+003,7.846329e+001
2.829273e+003,7.992123e+001
2.831202e+003,8.210476e+001
2.833130e+003,8.507891e+001
2.835059e+003,8.896684e+001
2.836987e+003,9.306440e+001
2.838916e+003,9.701149e+001
2.840844e+003,1.038520e+002
2.842773e+003,1.141310e+002
2.844701e+003,1.229943e+002
2.846630e+003,1.301374e+002
2.848558e+003,1.348519e+002
2.850487e+003,1.370536e+002
2.852415e+003,1.403946e+002
2.854344e+003,1.444970e+002
2.856272e+003,1.444859e+002
2.858200e+003,1.408182e+002
2.860129e+003,1.389853e+002
2.862057e+003,1.383496e+002
2.863986e+003,1.357827e+002
2.865914e+003,1.311406e+002
2.867843e+003,1.232242e+002
2.869771e+003,1.132696e+002
2.871700e+003,1.016628e+002
2.873628e+003,9.175543e+001
2.875557e+003,9.199155e+001
2.877485e+003,9.658636e+001
2.879414e+003,9.607787e+001
2.881342e+003,9.531006e+001
2.883271e+003,1.012936e+002
2.885199e+003,1.079686e+002
2.887127e+003,1.065196e+002
2.889056e+003,1.064046e+002
2.890984e+003,1.166264e+002
2.892913e+003,1.289650e+002
2.894841e+003,1.393928e+002
2.896770e+003,1.487893e+002
2.898698e+003,1.520462e+002
2.900627e+003,1.634460e+002
2.902555e+003,1.919730e+002
2.904484e+003,2.209126e+002
2.906412e+003,2.393034e+002
2.908341e+003,2.716924e+002
2.910269e+003,3.271524e+002
2.912198e+003,3.965228e+002
2.914126e+003,4.879340e+002
2.916054e+003,5.620223e+002
2.917983e+003,6.164222e+002
2.919911e+003,6.355216e+002
2.921840e+003,6.116168e+002
2.923768e+003,5.686191e+002
2.925697e+003,5.041616e+002
2.927625e+003,4.455834e+002
2.929554e+003,3.948871e+002
2.931482e+003,3.730215e+002
2.933411e+003,3.761531e+002
2.935339e+003,3.729429e+002
2.937268e+003,3.655443e+002
2.939196e+003,3.636038e+002
2.941125e+003,3.651880e+002
2.943053e+003,3.691582e+002
2.944981e+003,3.706250e+002
2.946910e+003,3.621231e+002
2.948838e+003,3.456519e+002
2.950767e+003,3.119682e+002
2.952695e+003,2.861994e+002
2.954624e+003,2.930365e+002
2.956552e+003,3.112371e+002
2.958481e+003,3.378255e+002
2.960409e+003,3.525028e+002
2.962338e+003,3.411935e+002
2.964266e+003,3.193630e+002
2.966195e+003,2.846809e+002
2.968123e+003,2.572873e+002
2.970052e+003,2.462253e+002
2.971980e+003,2.396714e+002
2.973908e+003,2.380014e+002
2.975837e+003,2.334169e+002
2.977765e+003,2.249093e+002
2.979694e+003,2.139687e+002
2.981622e+003,2.008050e+002
2.983551e+003,1.823386e+002
2.985479e+003,1.584830e+002
2.987408e+003,1.477269e+002
2.989336e+003,1.478867e+002
2.991265e+003,1.439520e+002
2.993193e+003,1.392086e+002
2.995122e+003,1.469776e+002
2.997050e+003,1.618399e+002
2.998979e+003,1.758851e+002
3.000907e+003,1.859262e+002
3.002835e+003,1.876513e+002
3.004764e+003,1.838171e+002
3.006692e+003,1.726037e+002
3.008621e+003,1.631165e+002
3.010549e+003,1.607281e+002
3.012478e+003,1.624557e+002
3.014406e+003,1.653818e+002
3.016335e+003,1.745790e+002
3.018263e+003,1.961258e+002
3.020192e+003,2.158042e+002
3.022120e+003,2.303405e+002
3.024049e+003,2.483769e+002
3.025977e+003,2.706890e+002
3.027906e+003,3.019599e+002
3.029834e+003,3.450777e+002
3.031762e+003,3.722078e+002
3.033691e+003,3.842636e+002
3.035619e+003,3.953517e+002
3.037548e+003,4.038743e+002
3.039476e+003,3.915945e+002
3.041405e+003,3.740482e+002
3.043333e+003,3.714816e+002
3.045262e+003,4.099350e+002
3.047190e+003,5.284828e+002
3.049119e+003,6.968932e+002
3.051047e+003,9.342866e+002
3.052976e+003,1.135199e+003
3.054904e+003,1.230426e+003
3.056833e+003,1.277922e+003
3.058761e+003,1.296477e+003
3.060689e+003,1.289896e+003
3.062618e+003,1.279237e+003
3.064546e+003,1.192413e+003
3.066475e+003,1.009443e+003
3.068403e+003,8.219032e+002
3.070332e+003,6.337908e+002
3.072260e+003,4.843345e+002
3.074189e+003,3.732044e+002
3.076117e+003,2.964128e+002
3.078046e+003,2.496387e+002
3.079974e+003,2.173527e+002
3.081903e+003,1.954243e+002
3.083831e+003,1.779088e+002
3.085760e+003,1.629267e+002
3.087688e+003,1.471642e+002
3.089616e+003,1.337103e+002
3.091545e+003,1.238907e+002
3.093473e+003,1.191051e+002
3.095402e+003,1.245025e+002
3.097330e+003,1.274758e+002
3.099259e+003,1.233640e+002
3.101187e+003,1.192918e+002
3.103116e+003,1.184044e+002
3.105044e+003,1.140811e+002
3.106973e+003,1.055637e+002
3.108901e+003,1.021297e+002
3.110830e+003,1.037765e+002
3.112758e+003,9.880360e+001
3.114687e+003,8.922475e+001
3.116615e+003,8.535134e+001
3.118543e+003,8.513947e+001
3.120472e+003,8.572366e+001
3.122400e+003,8.563277e+001
3.124329e+003,8.213859e+001
3.126257e+003,7.857668e+001
3.128186e+003,7.765089e+001
3.130114e+003,7.709911e+001
3.132043e+003,7.600436e+001
3.133971e+003,7.492639e+001
3.135900e+003,7.298053e+001
3.137828e+003,7.453533e+001
3.139757e+003,8.078773e+001
3.141685e+003,8.173089e+001
3.143614e+003,7.596712e+001
3.145542e+003,7.351040e+001
3.147470e+003,7.376947e+001
3.149399e+003,7.189387e+001
3.151327e+003,7.033187e+001
3.153256e+003,7.485290e+001
3.155184e+003,8.161381e+001
3.157113e+003,8.565217e+001
3.159041e+003,8.981561e+001
3.160970e+003,9.872212e+001
3.162898e+003,1.036532e+002
3.164827e+003,9.874828e+001
3.166755e+003,9.267621e+001
3.168684e+003,8.711533e+001
3.170612e+003,7.931152e+001
3.172541e+003,6.795648e+001
3.174469e+003,6.293143e+001
3.176397e+003,6.423547e+001
3.178326e+003,6.168924e+001
3.180254e+003,5.691238e+001
3.182183e+003,5.389349e+001
3.184111e+003,5.293086e+001
3.186040e+003,5.618427e+001
3.187968e+003,5.954863e+001
3.189897e+003,5.864951e+001
3.191825e+003,5.836610e+001
3.193754e+003,6.245065e+001
3.195682e+003,6.555442e+001
3.197611e+003,6.658289e+001
3.199539e+003,6.656633e+001
3.201468e+003,6.567963e+001
3.203396e+003,6.332379e+001
3.205324e+003,5.951614e+001
3.207253e+003,5.364334e+001
3.209181e+003,4.709858e+001
3.211110e+003,4.349553e+001
3.213038e+003,4.245654e+001
3.214967e+003,4.522337e+001
3.216895e+003,4.785302e+001
3.218824e+003,4.787440e+001
3.220752e+003,4.571956e+001
3.222681e+003,3.771146e+001
3.224609e+003,3.594129e+001
3.226538e+003,4.488902e+001
3.228466e+003,4.673001e+001
3.230395e+003,3.813488e+001
3.232323e+003,3.781228e+001
3.234251e+003,4.470408e+001
3.236180e+003,4.314331e+001
3.238108e+003,3.769423e+001
3.240037e+003,3.817828e+001
3.241965e+003,4.035240e+001
3.243894e+003,3.943300e+001
3.245822e+003,3.798323e+001
3.247751e+003,3.818802e+001
3.249679e+003,3.667440e+001
3.251608e+003,2.828725e+001
3.253536e+003,2.767539e+001
3.255465e+003,3.690577e+001
3.257393e+003,4.060978e+001
3.259322e+003,3.796076e+001
3.261250e+003,3.560692e+001
3.263178e+003,3.403823e+001
3.265107e+003,3.532483e+001
3.267035e+003,3.776528e+001
3.268964e+003,4.065192e+001
3.270892e+003,4.177744e+001
3.272821e+003,3.795481e+001
3.274749e+003,3.547783e+001
3.276678e+003,3.717284e+001
3.278606e+003,3.800419e+001
3.280535e+003,3.706095e+001
3.282463e+003,3.619904e+001
3.284392e+003,3.557052e+001
3.286320e+003,3.727217e+001
3.288249e+003,3.891642e+001
3.290177e+003,3.110779e+001
3.292105e+003,2.300234e+001
3.294034e+003,2.576092e+001
3.295962e+003,3.024652e+001
3.297891e+003,3.209019e+001
3.299819e+003,3.142116e+001
3.301748e+003,2.710422e+001
3.303676e+003,2.658936e+001
3.305605e+003,3.218637e+001
3.307533e+003,3.441592e+001
3.309462e+003,3.360009e+001
3.311390e+003,3.003834e+001
3.313319e+003,2.647454e+001
3.315247e+003,2.834208e+001
3.317176e+003,3.187308e+001
3.319104e+003,3.559750e+001
3.321032e+003,3.631159e+001
3.322961e+003,2.879671e+001
3.324889e+003,2.644237e+001
3.326818e+003,3.228165e+001
3.328746e+003,3.201341e+001
3.330675e+003,2.539089e+001
3.332603e+003,2.685717e+001
3.334532e+003,3.268574e+001
3.336460e+003,3.057713e+001
3.338389e+003,2.716665e+001
3.340317e+003,3.061976e+001
3.342246e+003,3.383046e+001
3.344174e+003,3.244531e+001
3.346103e+003,3.111545e+001
3.348031e+003,3.088088e+001
3.349959e+003,3.077984e+001
3.351888e+003,3.077327e+001
3.353816e+003,2.982950e+001
3.355745e+003,2.832187e+001
3.357673e+003,2.764686e+001
3.359602e+003,2.693682e+001
3.361530e+003,2.381930e+001
3.363459e+003,2.207093e+001
3.365387e+003,2.541995e+001
3.367316e+003,2.748307e+001
3.369244e+003,2.646808e+001
3.371173e+003,2.408812e+001
3.373101e+003,2.068064e+001
3.375030e+003,2.313774e+001
3.376958e+003,2.867632e+001
3.378886e+003,2.598186e+001
3.380815e+003,2.120199e+001
3.382743e+003,2.145377e+001
3.384672e+003,2.286931e+001
3.386600e+003,2.412757e+001
3.388529e+003,2.356268e+001
3.390457e+003,1.992238e+001
3.392386e+003,2.035559e+001
3.394314e+003,2.541836e+001
3.396243e+003,2.548027e+001
3.398171e+003,2.266492e+001
3.400100e+003,2.159371e+001
3.402028e+003,2.195754e+001
3.403957e+003,2.409321e+001
3.405885e+003,2.649457e+001
3.407813e+003,2.872683e+001
3.409742e+003,3.059908e+001
3.411670e+003,3.200499e+001
3.413599e+003,3.427058e+001
3.415527e+003,3.664931e+001
3.417456e+003,3.386240e+001
3.419384e+003,2.867461e+001
3.421313e+003,2.601146e+001
3.423241e+003,2.430353e+001
3.425170e+003,2.237808e+001
3.427098e+003,2.086413e+001
3.429027e+003,1.861214e+001
3.430955e+003,2.406324e+001
3.432884e+003,3.838655e+001
3.434812e+003,3.790392e+001
3.436740e+003,2.768114e+001
3.438669e+003,2.622506e+001
3.440597e+003,2.864156e+001
3.442526e+003,3.180590e+001
3.444454e+003,3.306831e+001
3.446383e+003,3.049689e+001
3.448311e+003,2.851833e+001
3.450240e+003,2.775352e+001
3.452168e+003,3.066614e+001
3.454097e+003,3.612415e+001
3.456025e+003,3.568439e+001
3.457954e+003,3.307456e+001
3.459882e+003,3.386228e+001
3.461811e+003,3.518791e+001
3.463739e+003,3.589276e+001
3.465667e+003,3.535878e+001
3.467596e+003,3.350671e+001
3.469524e+003,2.923799e+001
3.471453e+003,2.306098e+001
3.473381e+003,1.928295e+001
3.475310e+003,1.786990e+001
3.477238e+003,1.997093e+001
3.479167e+003,2.266404e+001
3.481095e+003,2.370910e+001
3.483024e+003,2.479845e+001
3.484952e+003,2.647286e+001
3.486881e+003,2.832559e+001
3.488809e+003,3.013327e+001
3.490738e+003,2.873535e+001
3.492666e+003,2.606597e+001
3.494594e+003,2.817032e+001
3.496523e+003,2.989240e+001
3.498451e+003,2.572929e+001
3.500380e+003,2.241479e+001
3.502308e+003,2.158069e+001
3.504237e+003,2.303156e+001
3.506165e+003,2.675655e+001
3.508094e+003,2.705632e+001
3.510022e+003,2.566429e+001
3.511951e+003,2.752240e+001
3.513879e+003,2.910700e+001
3.515808e+003,2.622006e+001
3.517736e+003,2.441978e+001
3.519665e+003,2.521965e+001
3.521593e+003,2.752322e+001
3.523521e+003,3.113842e+001
3.525450e+003,2.949119e+001
3.527378e+003,2.505362e+001
3.529307e+003,2.158303e+001
3.531235e+003,2.000130e+001
3.533164e+003,2.173044e+001
3.535092e+003,2.370400e+001
3.537021e+003,2.479682e+001
3.538949e+003,2.811399e+001
3.540878e+003,3.283578e+001
3.542806e+003,2.816102e+001
3.544735e+003,2.092114e+001
3.546663e+003,2.393293e+001
3.548592e+003,2.664929e+001
3.550520e+003,2.155727e+001
3.552448e+003,1.935550e+001
3.554377e+003,2.367944e+001
3.556305e+003,2.230898e+001
3.558234e+003,1.771538e+001
3.560162e+003,2.381146e+001
3.562091e+003,3.170134e+001
3.564019e+003,2.800632e+001
3.565948e+003,2.508815e+001
3.567876e+003,3.112161e+001
3.569805e+003,3.279857e+001
3.571733e+003,2.921445e+001
3.573662e+003,2.725772e+001
3.575590e+003,2.685657e+001
3.577519e+003,2.798489e+001
3.579447e+003,2.901376e+001
3.581376e+003,2.840561e+001
3.583304e+003,2.778951e+001
3.585233e+003,2.768890e+001
3.587161e+003,2.689589e+001
3.589090e+003,2.558882e+001
3.591018e+003,2.601280e+001
3.592947e+003,2.724223e+001
3.594875e+003,2.915953e+001
3.596803e+003,2.898302e+001
3.598732e+003,2.202640e+001
3.600660e+003,2.055404e+001
3.602589e+003,2.581167e+001
3.604517e+003,2.776563e+001
3.606446e+003,2.616720e+001
3.608374e+003,1.811924e+001
3.610303e+003,1.125727e+001
3.612231e+003,1.174460e+001
3.614160e+003,1.653578e+001
3.616088e+003,2.567294e+001
3.618017e+003,3.034314e+001
3.619945e+003,3.023483e+001
3.621874e+003,2.632559e+001
3.623802e+003,2.253100e+001
3.625730e+003,2.466484e+001
3.627659e+003,2.663519e+001
3.629587e+003,2.511227e+001
3.631516e+003,2.599769e+001
3.633444e+003,2.999408e+001
3.635373e+003,3.012567e+001
3.637301e+003,2.901188e+001
3.639230e+003,3.347014e+001
3.641158e+003,3.687629e+001
3.643087e+003,3.363099e+001
3.645015e+003,3.067355e+001
3.646944e+003,2.891943e+001
3.648872e+003,2.829504e+001
3.650801e+003,2.820802e+001
3.652729e+003,2.711791e+001
3.654657e+003,2.501188e+001
3.656586e+003,1.961091e+001
3.658514e+003,1.849764e+001
3.660443e+003,2.402384e+001
3.662371e+003,2.393005e+001
3.664300e+003,1.972496e+001
3.666228e+003,2.375382e+001
3.668157e+003,2.883188e+001
3.670085e+003,2.630059e+001
3.672014e+003,2.524247e+001
3.673942e+003,2.880730e+001
3.675871e+003,2.883839e+001
3.677799e+003,2.525974e+001
3.679728e+003,2.144094e+001
3.681656e+003,1.954356e+001
3.683584e+003,2.469935e+001
3.685513e+003,2.688868e+001
3.687441e+003,2.156318e+001
3.689370e+003,2.016157e+001
3.691298e+003,2.359485e+001
3.693227e+003,2.858106e+001
3.695155e+003,3.296562e+001
3.697084e+003,3.383250e+001
3.699012e+003,3.340913e+001
3.700941e+003,3.256738e+001
3.702869e+003,3.067014e+001
3.704798e+003,2.788637e+001
3.706726e+003,2.844964e+001
3.708655e+003,2.942581e+001
3.710583e+003,2.614768e+001
3.712511e+003,2.259901e+001
3.714440e+003,1.960423e+001
3.716368e+003,2.138260e+001
3.718297e+003,2.775157e+001
3.720225e+003,2.812054e+001
3.722154e+003,2.613449e+001
3.724082e+003,2.729506e+001
3.726011e+003,2.786553e+001
3.727939e+003,2.654521e+001
3.729868e+003,2.202727e+001
3.731796e+003,1.531503e+001
3.733725e+003,1.874809e+001
3.735653e+003,2.600206e+001
3.737582e+003,3.028585e+001
3.739510e+003,3.141768e+001
3.741438e+003,2.838660e+001
3.743367e+003,2.686320e+001
3.745295e+003,2.703003e+001
3.747224e+003,2.718692e+001
3.749152e+003,2.664207e+001
3.751081e+003,2.341733e+001
3.753009e+003,2.202622e+001
3.754938e+003,2.414013e+001
3.756866e+003,2.703322e+001
3.758795e+003,2.978572e+001
3.760723e+003,2.904798e+001
3.762652e+003,2.678359e+001
3.764580e+003,2.350813e+001
3.766509e+003,2.278035e+001
3.768437e+003,2.573059e+001
3.770365e+003,2.730345e+001
3.772294e+003,2.751185e+001
3.774222e+003,2.711191e+001
3.776151e+003,2.585772e+001
3.778079e+003,2.190756e+001
3.780008e+003,2.249519e+001
3.781936e+003,2.873195e+001
3.783865e+003,2.711927e+001
3.785793e+003,2.239492e+001
3.787722e+003,2.589581e+001
3.789650e+003,2.864471e+001
3.791579e+003,2.493429e+001
3.793507e+003,2.324143e+001
3.795436e+003,2.419277e+001
3.797364e+003,2.641222e+001
3.799292e+003,2.913897e+001
3.801221e+003,3.299187e+001
3.803149e+003,3.372184e+001
3.805078e+003,2.881743e+001
3.807006e+003,2.426946e+001
3.808935e+003,2.130867e+001
3.810863e+003,2.525360e+001
3.812792e+003,3.025706e+001
3.814720e+003,3.194915e+001
3.816649e+003,3.105114e+001
3.818577e+003,2.693342e+001
3.820506e+003,2.637440e+001
3.822434e+003,2.729684e+001
3.824363e+003,2.402879e+001
3.826291e+003,2.296965e+001
3.828219e+003,2.871709e+001
3.830148e+003,2.980697e+001
3.832076e+003,2.561479e+001
3.834005e+003,2.547829e+001
3.835933e+003,2.724430e+001
3.837862e+003,2.966293e+001
3.839790e+003,2.983718e+001
3.841719e+003,2.683766e+001
3.843647e+003,2.752958e+001
3.845576e+003,3.016737e+001
3.847504e+003,2.760065e+001
3.849433e+003,2.521807e+001
3.851361e+003,3.006886e+001
3.853290e+003,2.430506e+001
3.855218e+003,8.729728e+000
3.857146e+003,1.358340e+001
3.859075e+003,2.328175e+001
3.861003e+003,1.190973e+001
3.862932e+003,7.459507e+000
3.864860e+003,2.343205e+001
3.866789e+003,2.820419e+001
3.868717e+003,2.531912e+001
3.870646e+003,2.856378e+001
3.872574e+003,3.203889e+001
3.874503e+003,3.209769e+001
3.876431e+003,3.094150e+001
3.878360e+003,2.918119e+001
3.880288e+003,3.461960e+001
3.882217e+003,4.001176e+001
3.884145e+003,3.437036e+001
3.886073e+003,2.879225e+001
3.888002e+003,2.609380e+001
3.889930e+003,2.648067e+001
3.891859e+003,2.819073e+001
3.893787e+003,2.572334e+001
3.895716e+003,2.490598e+001
3.897644e+003,3.002732e+001
3.899573e+003,3.111251e+001
3.901501e+003,2.772365e+001
3.903430e+003,2.508491e+001
3.905358e+003,2.342084e+001
3.907287e+003,2.156913e+001
3.909215e+003,2.542558e+001
3.911144e+003,3.548933e+001
3.913072e+003,3.443946e+001
3.915000e+003,2.812435e+001
3.916929e+003,2.691253e+001
3.918857e+003,2.643056e+001
3.920786e+003,2.511277e+001
3.922714e+003,2.388754e+001
3.924643e+003,2.239187e+001
3.926571e+003,1.671354e+001
3.928500e+003,1.560484e+001
3.930428e+003,2.783984e+001
3.932357e+003,2.986542e+001
3.934285e+003,2.166930e+001
3.936214e+003,2.351966e+001
3.938142e+003,2.691455e+001
3.940071e+003,2.146100e+001
3.941999e+003,1.951503e+001
3.943927e+003,2.406062e+001
3.945856e+003,2.724259e+001
3.947784e+003,2.948971e+001
3.949713e+003,3.262061e+001
3.951641e+003,3.235886e+001
3.953570e+003,2.728357e+001
3.955498e+003,2.607179e+001
3.957427e+003,2.710273e+001
3.959355e+003,2.447169e+001
3.961284e+003,2.276729e+001
3.963212e+003,2.505754e+001
3.965141e+003,2.636716e+001
3.967069e+003,2.663490e+001
3.968998e+003,2.661163e+001
3.970926e+003,2.679920e+001
3.972854e+003,2.736685e+001
3.974783e+003,2.907590e+001
3.976711e+003,3.159080e+001
3.978640e+003,3.230183e+001
3.980568e+003,3.165822e+001
3.982497e+003,2.921823e+001
3.984425e+003,2.840366e+001
3.986354e+003,2.992923e+001
3.988282e+003,3.061870e+001
3.990211e+003,3.049812e+001
3.992139e+003,2.982976e+001
3.994068e+003,2.747308e+001
3.995996e+003,2.319223e+001
3.997925e+003,2.117003e+001
3.999853e+003,2.216150e+001
4.001781e+003,3.183335e+001
4.003710e+003,3.274486e+001
4.005638e+003,1.832298e+001
4.007567e+003,1.678133e+001
4.009495e+003,2.221321e+001
4.011424e+003,1.885041e+001
4.013352e+003,1.714223e+001
4.015281e+003,2.280162e+001
4.017209e+003,2.948829e+001
4.019138e+003,3.420506e+001
4.021066e+003,2.789883e+001
4.022995e+003,2.190609e+001
4.024923e+003,2.106333e+001
4.026852e+003,2.407130e+001
4.028780e+003,2.864100e+001
4.030708e+003,2.663031e+001
4.032637e+003,2.549153e+001
4.034565e+003,3.028619e+001
4.036494e+003,3.068594e+001
4.038422e+003,2.753003e+001
4.040351e+003,2.894085e+001
4.042279e+003,2.879516e+001
4.044208e+003,1.930871e+001
4.046136e+003,1.987716e+001
4.048065e+003,2.801405e+001
4.049993e+003,3.004551e+001
4.051922e+003,2.814748e+001
4.053850e+003,2.276560e+001
4.055779e+003,1.959190e+001
4.057707e+003,1.914279e+001
4.059635e+003,2.347179e+001
4.061564e+003,2.609942e+001
4.063492e+003,2.212256e+001
4.065421e+003,1.753926e+001
4.067349e+003,1.409024e+001
4.069278e+003,1.906930e+001
4.071206e+003,2.545935e+001
4.073135e+003,3.073178e+001
4.075063e+003,2.717655e+001
4.076992e+003,1.732394e+001
4.078920e+003,1.520584e+001
4.080849e+003,1.649500e+001
4.082777e+003,1.905826e+001
4.084706e+003,2.146100e+001
4.086634e+003,2.304831e+001
4.088563e+003,2.062496e+001
4.090491e+003,1.929637e+001
4.092419e+003,2.284856e+001
4.094348e+003,2.085948e+001
4.096276e+003,1.531521e+001
4.098205e+003,1.915983e+001
4.100133e+003,2.268023e+001
4.102062e+003,1.987498e+001
4.103990e+003,1.870102e+001
4.105919e+003,1.968798e+001
4.107847e+003,2.505355e+001
4.109776e+003,2.774909e+001
4.111704e+003,2.112274e+001
4.113633e+003,2.044339e+001
4.115561e+003,2.338641e+001
4.117490e+003,2.313818e+001
4.119418e+003,2.444984e+001
4.121347e+003,2.984610e+001
4.123275e+003,2.734808e+001
4.125204e+003,2.081243e+001
4.127132e+003,1.752833e+001
4.129061e+003,1.730605e+001
4.130989e+003,1.993913e+001
4.132917e+003,2.251365e+001
4.134846e+003,2.371326e+001
4.136774e+003,2.026482e+001
4.138703e+003,1.924135e+001
4.140631e+003,2.246167e+001
4.142560e+003,2.340817e+001
4.144488e+003,2.324898e+001
4.146417e+003,2.402064e+001
4.148345e+003,2.166903e+001
4.150273e+003,1.588044e+001
4.152202e+003,1.584895e+001
4.154130e+003,1.894736e+001
4.156059e+003,2.520671e+001
4.157987e+003,2.694775e+001
4.159916e+003,2.435990e+001
4.161844e+003,2.332082e+001
4.163773e+003,2.285382e+001
4.165701e+003,2.173728e+001
4.167630e+003,2.411110e+001
4.169558e+003,2.771944e+001
4.171487e+003,2.502292e+001
4.173415e+003,2.162498e+001
4.175344e+003,1.977255e+001
4.177272e+003,1.993054e+001
4.179201e+003,2.076370e+001
4.181129e+003,1.856100e+001
4.183058e+003,1.975067e+001
4.184986e+003,2.556472e+001
4.186915e+003,2.278206e+001
4.188843e+003,1.854149e+001
4.190771e+003,2.300105e+001
4.192700e+003,2.464007e+001
4.194628e+003,2.197044e+001
4.196557e+003,2.254653e+001
4.198485e+003,2.276064e+001
4.200414e+003,1.901748e+001
4.202342e+003,1.821322e+001
4.204271e+003,2.088936e+001
4.206199e+003,3.094210e+001
4.208127e+003,3.412331e+001
4.210056e+003,2.020657e+001
4.211984e+003,1.798179e+001
4.213913e+003,2.312342e+001
4.215841e+003,2.638768e+001
4.217770e+003,2.773183e+001
4.219698e+003,2.691304e+001
4.221627e+003,2.608663e+001
4.223555e+003,2.520558e+001
4.225484e+003,2.461573e+001
4.227412e+003,2.175681e+001
4.229341e+003,1.773886e+001
4.231269e+003,2.584971e+001
4.233198e+003,3.124183e+001
4.235126e+003,1.919650e+001
4.237055e+003,1.776238e+001
4.238983e+003,2.202645e+001
4.240912e+003,1.459108e+001
4.242840e+003,1.289582e+001
4.244769e+003,2.413046e+001
4.246697e+003,2.602364e+001
4.248625e+003,2.457648e+001
4.250554e+003,2.634064e+001
