1.159199e+002,6.687014e+001
1.178484e+002,7.653445e+001
1.197769e+002,8.902968e+001
1.217053e+002,1.046564e+002
1.236338e+002,1.155292e+002
1.255623e+002,1.235211e+002
1.274907e+002,1.257629e+002
1.294192e+002,1.208058e+002
1.313477e+002,1.015694e+002
1.332761e+002,8.270540e+001
1.352046e+002,6.776688e+001
1.371331e+002,5.714955e+001
1.390615e+002,4.964424e+001
1.409900e+002,4.821716e+001
1.429185e+002,4.980320e+001
1.448469e+002,4.885912e+001
1.467754e+002,4.110337e+001
1.487039e+002,3.438420e+001
1.506323e+002,3.321476e+001
1.525608e+002,3.807545e+001
1.544893e+002,4.143709e+001
1.564177e+002,4.039577e+001
1.583462e+002,3.621155e+001
1.602747e+002,3.547829e+001
1.622031e+002,3.736946e+001
1.641316e+002,4.233398e+001
1.660601e+002,5.064433e+001
1.679885e+002,6.464387e+001
1.699170e+002,7.677213e+001
1.718455e+002,8.744076e+001
1.737739e+002,9.622925e+001
1.757024e+002,9.876286e+001
1.776309e+002,9.062480e+001
1.795593e+002,7.880766e+001
1.814878e+002,6.931494e+001
1.834163e+002,6.104042e+001
1.853447e+002,5.613890e+001
1.872732e+002,5.496191e+001
1.892017e+002,5.721249e+001
1.911301e+002,6.352888e+001
1.930586e+002,7.700463e+001
1.949871e+002,9.367796e+001
1.969155e+002,1.088554e+002
1.988440e+002,1.275983e+002
2.007725e+002,1.408308e+002
2.027009e+002,1.449440e+002
2.046294e+002,1.404003e+002
2.065579e+002,1.315154e+002
2.084864e+002,1.165702e+002
2.104148e+002,9.806271e+001
2.123433e+002,8.150356e+001
2.142718e+002,6.604997e+001
2.162002e+002,5.324335e+001
2.181287e+002,4.346262e+001
2.200572e+002,3.734958e+001
2.219856e+002,3.306614e+001
2.239141e+002,3.127105e+001
2.258426e+002,3.118728e+001
2.277710e+002,3.058639e+001
2.296995e+002,2.926224e+001
2.316280e+002,2.765594e+001
2.335564e+002,2.599102e+001
2.354849e+002,2.418987e+001
2.374134e+002,2.244385e+001
2.393418e+002,2.074212e+001
2.412703e+002,1.908688e+001
2.431988e+002,1.751042e+001
2.451272e+002,1.660065e+001
2.470557e+002,1.526895e+001
2.489842e+002,1.255968e+001
2.509126e+002,6.834988e+000
2.528411e+002,3.212740e+000
2.547696e+002,4.347151e+000
2.566980e+002,8.384660e+000
2.586265e+002,1.052970e+001
2.605550e+002,8.818240e+000
2.624834e+002,6.391528e+000
2.644119e+002,4.696481e+000
2.663404e+002,3.726044e+000
2.682688e+002,3.248098e+000
2.701973e+002,3.643828e+000
2.721258e+002,4.644961e+000
2.740542e+002,5.004299e+000
2.759827e+002,3.757239e+000
2.779112e+002,2.629932e+000
2.798396e+002,2.760231e+000
2.817681e+002,4.302711e+000
2.836966e+002,5.794736e+000
2.856250e+002,7.124677e+000
2.875535e+002,8.215302e+000
2.894820e+002,8.557128e+000
2.914104e+002,8.139777e+000
2.933389e+002,7.144383e+000
2.952674e+002,5.434346e+000
2.971958e+002,2.725734e+000
2.991243e+002,6.116877e-001
3.010528e+002,-6.518423e-001
3.029813e+002,-1.161495e+000
3.049097e+002,-1.225534e+000
3.068382e+002,-2.290641e-001
3.087667e+002,5.303042e-001
3.106951e+002,3.717729e-001
3.126236e+002,-1.103339e+000
3.145521e+002,-2.209773e+000
3.164805e+002,-3.328040e+000
3.184090e+002,-3.884617e+000
3.203375e+002,-2.676608e+000
3.222659e+002,1.914495e+000
3.241944e+002,5.895236e+000
3.261229e+002,7.552992e+000
3.280513e+002,5.431040e+000
3.299798e+002,4.677746e+000
3.319083e+002,6.651619e+000
3.338367e+002,9.527953e+000
3.357652e+002,1.084336e+001
3.376937e+002,9.852763e+000
3.396221e+002,8.456763e+000
3.415506e+002,7.372797e+000
3.434791e+002,6.753769e+000
3.454075e+002,5.629619e+000
3.473360e+002,2.804125e+000
3.492645e+002,1.902727e-001
3.511929e+002,-5.044604e-001
3.531214e+002,2.104618e+000
3.550499e+002,4.030364e+000
3.569783e+002,3.955259e+000
3.589068e+002,1.907310e+000
3.608353e+002,5.725762e-001
3.627637e+002,5.342756e-001
3.646922e+002,7.611003e-001
3.666207e+002,6.053841e-001
3.685491e+002,-2.168180e-001
3.704776e+002,-8.216183e-001
3.724061e+002,-1.033032e+000
3.743345e+002,-9.127604e-001
3.762630e+002,-7.524591e-001
3.781915e+002,-6.061569e-001
3.801199e+002,-3.487858e-001
3.820484e+002,2.064435e-001
3.839769e+002,1.525244e+000
3.859053e+002,1.897045e+000
3.878338e+002,1.264895e-001
3.897623e+002,-2.312949e+000
3.916907e+002,-3.101525e+000
3.936192e+002,-1.618561e+000
3.955477e+002,4.807933e-001
3.974761e+002,2.849041e+000
3.994046e+002,5.675239e+000
4.013331e+002,7.472211e+000
4.032615e+002,7.324743e+000
4.051900e+002,6.792241e+000
4.071185e+002,7.033343e+000
4.090469e+002,7.970437e+000
4.109754e+002,9.819597e+000
4.129039e+002,1.330687e+001
4.148323e+002,1.801097e+001
4.167608e+002,2.118316e+001
4.186893e+002,2.187015e+001
4.206177e+002,2.201513e+001
4.225462e+002,2.279023e+001
4.244747e+002,2.450519e+001
4.264032e+002,2.480244e+001
4.283316e+002,2.222504e+001
4.302601e+002,1.836023e+001
4.321886e+002,1.582625e+001
4.341170e+002,1.487621e+001
4.360455e+002,1.457619e+001
4.379740e+002,1.435266e+001
4.399024e+002,1.422742e+001
4.418309e+002,1.572173e+001
4.437594e+002,2.132143e+001
4.456878e+002,2.696341e+001
4.476163e+002,2.969489e+001
4.495448e+002,2.934784e+001
4.514732e+002,2.746506e+001
4.534017e+002,2.191173e+001
4.553302e+002,1.497250e+001
4.572586e+002,1.206069e+001
4.591871e+002,1.611282e+001
4.611156e+002,2.150576e+001
4.630440e+002,2.802181e+001
4.649725e+002,3.555162e+001
4.669010e+002,4.004228e+001
4.688294e+002,3.957581e+001
4.707579e+002,3.643330e+001
4.726864e+002,3.234352e+001
4.746148e+002,2.570302e+001
4.765433e+002,1.997598e+001
4.784718e+002,1.536110e+001
4.804002e+002,1.192387e+001
4.823287e+002,9.564002e+000
4.842572e+002,8.961019e+000
4.861856e+002,8.668924e+000
4.881141e+002,7.905980e+000
4.900426e+002,6.234600e+000
4.919710e+002,5.780289e+000
4.938995e+002,7.455073e+000
4.958280e+002,9.773179e+000
4.977564e+002,1.159364e+001
4.996849e+002,1.315637e+001
5.016134e+002,1.354745e+001
5.035418e+002,1.180015e+001
5.054703e+002,8.582486e+000
5.073988e+002,6.721506e+000
5.093272e+002,7.327468e+000
5.112557e+002,8.010509e+000
5.131842e+002,7.550445e+000
5.151127e+002,6.027532e+000
5.170411e+002,5.388700e+000
5.189696e+002,6.158969e+000
5.208981e+002,7.784269e+000
5.228265e+002,9.951338e+000
5.247550e+002,1.275900e+001
5.266835e+002,1.590352e+001
5.286119e+002,2.013751e+001
5.305404e+002,2.459357e+001
5.324689e+002,2.778634e+001
5.343973e+002,2.948118e+001
5.363258e+002,2.991128e+001
5.382543e+002,2.879377e+001
5.401827e+002,2.593985e+001
5.421112e+002,2.316251e+001
5.440397e+002,2.019754e+001
5.459681e+002,1.754871e+001
5.478966e+002,1.548860e+001
5.498251e+002,1.412707e+001
5.517535e+002,1.306231e+001
5.536820e+002,1.233441e+001
5.556105e+002,1.181739e+001
5.575389e+002,1.135066e+001
5.594674e+002,1.109078e+001
5.613959e+002,1.060138e+001
5.633243e+002,9.347278e+000
5.652528e+002,7.609183e+000
5.671813e+002,6.729538e+000
5.691097e+002,7.746977e+000
5.710382e+002,8.766656e+000
5.729667e+002,8.847833e+000
5.748951e+002,7.868351e+000
5.768236e+002,7.436541e+000
5.787521e+002,7.426835e+000
5.806805e+002,8.294353e+000
5.826090e+002,1.056013e+001
5.845375e+002,1.566318e+001
5.864659e+002,1.933683e+001
5.883944e+002,2.072954e+001
5.903229e+002,2.051174e+001
5.922513e+002,1.997523e+001
5.941798e+002,1.889461e+001
5.961083e+002,1.798947e+001
5.980367e+002,1.691882e+001
5.999652e+002,1.579694e+001
6.018937e+002,1.695450e+001
6.038221e+002,2.006739e+001
6.057506e+002,2.558945e+001
6.076791e+002,3.617197e+001
6.096075e+002,5.186871e+001
6.115360e+002,6.237051e+001
6.134645e+002,6.472588e+001
6.153929e+002,6.209280e+001
6.173214e+002,5.649224e+001
6.192499e+002,4.545085e+001
6.211783e+002,3.613266e+001
6.231068e+002,2.963256e+001
6.250353e+002,2.489461e+001
6.269637e+002,2.012256e+001
6.288922e+002,1.470837e+001
6.308207e+002,1.062680e+001
6.327491e+002,8.715563e+000
6.346776e+002,8.620050e+000
6.366061e+002,9.245955e+000
6.385345e+002,1.145170e+001
6.404630e+002,1.350764e+001
6.423915e+002,1.506511e+001
6.443199e+002,1.605814e+001
6.462484e+002,1.617561e+001
6.481769e+002,1.477556e+001
6.501053e+002,1.306618e+001
6.520338e+002,1.180293e+001
6.539623e+002,1.139264e+001
6.558907e+002,1.022133e+001
6.578192e+002,6.946739e+000
6.597477e+002,3.723780e+000
6.616761e+002,2.933646e+000
6.636046e+002,4.950448e+000
6.655331e+002,6.782923e+000
6.674615e+002,8.036379e+000
6.693900e+002,8.565189e+000
6.713185e+002,8.053367e+000
6.732469e+002,4.804483e+000
6.751754e+002,2.459599e+000
6.771039e+002,1.433648e+000
6.790323e+002,1.666244e+000
6.809608e+002,2.814767e+000
6.828893e+002,5.613488e+000
6.848177e+002,8.085562e+000
6.867462e+002,9.798611e+000
6.886747e+002,1.074479e+001
6.906031e+002,1.024723e+001
6.925316e+002,6.271875e+000
6.944601e+002,2.823003e+000
6.963885e+002,1.842278e+000
6.983170e+002,3.213285e+000
7.002455e+002,4.639585e+000
7.021740e+002,5.899813e+000
7.041024e+002,7.174098e+000
7.060309e+002,8.893488e+000
7.079594e+002,1.184649e+001
7.098878e+002,1.251754e+001
7.118163e+002,8.734359e+000
7.137448e+002,4.159164e+000
7.156732e+002,2.402482e+000
7.176017e+002,3.820292e+000
7.195302e+002,4.702944e+000
7.214586e+002,3.409928e+000
7.233871e+002,1.643726e+000
7.253156e+002,1.174380e+000
7.272440e+002,2.940318e+000
7.291725e+002,4.451908e+000
7.311010e+002,5.544576e+000
7.330294e+002,6.211085e+000
7.349579e+002,6.321445e+000
7.368864e+002,5.522114e+000
7.388149e+002,5.063864e+000
7.407433e+002,5.851004e+000
7.426718e+002,7.239330e+000
7.446003e+002,7.738254e+000
7.465287e+002,5.863272e+000
7.484572e+002,4.832117e+000
7.503857e+002,5.566001e+000
7.523141e+002,7.745676e+000
7.542426e+002,9.787978e+000
7.561711e+002,1.125657e+001
7.580995e+002,1.326777e+001
7.600280e+002,1.611423e+001
7.619565e+002,1.978711e+001
7.638849e+002,2.459003e+001
7.658134e+002,3.392545e+001
7.677419e+002,4.107027e+001
7.696703e+002,4.388745e+001
7.715988e+002,4.208345e+001
7.735273e+002,3.759211e+001
7.754557e+002,2.736526e+001
7.773842e+002,1.781053e+001
7.793127e+002,1.219607e+001
7.812411e+002,1.024859e+001
7.831696e+002,9.088293e+000
7.850981e+002,9.521517e+000
7.870266e+002,9.731568e+000
7.889550e+002,8.342961e+000
7.908835e+002,4.793828e+000
7.928120e+002,3.668005e+000
7.947404e+002,7.260581e+000
7.966689e+002,1.140139e+001
7.985974e+002,1.391685e+001
8.005258e+002,1.485440e+001
8.024543e+002,1.492210e+001
8.043828e+002,1.320132e+001
8.063112e+002,1.139984e+001
8.082397e+002,1.040022e+001
8.101682e+002,1.035088e+001
8.120966e+002,1.081401e+001
8.140251e+002,1.262984e+001
8.159536e+002,1.430530e+001
8.178820e+002,1.411642e+001
8.198105e+002,1.193441e+001
8.217390e+002,1.193456e+001
8.236674e+002,1.365313e+001
8.255959e+002,1.888919e+001
8.275244e+002,2.823697e+001
8.294528e+002,3.993906e+001
8.313813e+002,6.177543e+001
8.333098e+002,1.004567e+002
8.352382e+002,1.442954e+002
8.371667e+002,1.915698e+002
8.390952e+002,2.442352e+002
8.410236e+002,2.707189e+002
8.429521e+002,2.499653e+002
8.448806e+002,2.107407e+002
8.468090e+002,1.693874e+002
8.487375e+002,1.217027e+002
8.506660e+002,8.389455e+001
8.525944e+002,5.761524e+001
8.545229e+002,3.932352e+001
8.564514e+002,2.854177e+001
8.583798e+002,2.544622e+001
8.603083e+002,2.248082e+001
8.622368e+002,1.719985e+001
8.641652e+002,1.298732e+001
8.660937e+002,1.217358e+001
8.680222e+002,1.541857e+001
8.699506e+002,1.909388e+001
8.718791e+002,2.362340e+001
8.738076e+002,2.794301e+001
8.757360e+002,3.007839e+001
8.776645e+002,2.927096e+001
8.795930e+002,3.395247e+001
8.815214e+002,4.992494e+001
8.834499e+002,6.675962e+001
8.853784e+002,8.021433e+001
8.873068e+002,9.052769e+001
8.892353e+002,9.274973e+001
8.911638e+002,8.018934e+001
8.930922e+002,6.448483e+001
8.950207e+002,4.974624e+001
8.969492e+002,3.592008e+001
8.988776e+002,2.488240e+001
9.008061e+002,1.679281e+001
9.027346e+002,1.117770e+001
9.046630e+002,8.948683e+000
9.065915e+002,9.361007e+000
9.085200e+002,9.066126e+000
9.104484e+002,5.253511e+000
9.123769e+002,4.001332e+000
9.143054e+002,1.051407e+001
9.162338e+002,2.415063e+001
9.181623e+002,2.906137e+001
9.200908e+002,1.774330e+001
9.220192e+002,6.875152e+000
9.239477e+002,1.230463e+000
9.258762e+002,2.703520e-001
9.278046e+002,1.855811e+000
9.297331e+002,8.607677e+000
9.316616e+002,1.297362e+001
9.335900e+002,1.000127e+001
9.355185e+002,2.468329e+000
9.374470e+002,-1.755575e+000
9.393754e+002,6.133362e-002
9.413039e+002,1.862107e+000
9.432324e+002,3.337728e+000
9.451608e+002,4.120497e+000
9.470893e+002,2.991764e+000
9.490178e+002,-1.392692e+000
9.509462e+002,-3.837542e+000
9.528747e+002,-1.730947e+000
9.548032e+002,2.345396e+000
9.567316e+002,5.869721e+000
9.586601e+002,9.247015e+000
9.605886e+002,1.057208e+001
9.625170e+002,7.514796e+000
9.644455e+002,3.700452e+000
9.663740e+002,2.638936e+000
9.683024e+002,6.462872e+000
9.702309e+002,7.616750e+000
9.721594e+002,2.601058e+000
9.740878e+002,-2.397179e+000
9.760163e+002,-2.464957e+000
9.779448e+002,1.936833e+000
9.798733e+002,5.947284e+000
9.818018e+002,8.070246e+000
9.837302e+002,1.063228e+001
9.856587e+002,1.493454e+001
9.875872e+002,2.099442e+001
9.895156e+002,2.667431e+001
9.914441e+002,3.603394e+001
9.933726e+002,4.055500e+001
9.953010e+002,3.451218e+001
9.972295e+002,2.099406e+001
9.991580e+002,1.191210e+001
1.001086e+003,8.695925e+000
1.003015e+003,6.729028e+000
1.004943e+003,4.385101e+000
1.006872e+003,2.340177e+000
1.008800e+003,1.948764e+000
1.010729e+003,4.243825e+000
1.012657e+003,5.763367e+000
1.014586e+003,5.272922e+000
1.016514e+003,4.150586e+000
1.018443e+003,3.914073e+000
1.020371e+003,5.040054e+000
1.022300e+003,5.916739e+000
1.024228e+003,6.656464e+000
1.026156e+003,7.020949e+000
1.028085e+003,6.273201e+000
1.030013e+003,4.596546e+000
1.031942e+003,4.467781e+000
1.033870e+003,6.895568e+000
1.035799e+003,1.015150e+001
1.037727e+003,1.382413e+001
1.039656e+003,1.781482e+001
1.041584e+003,2.097121e+001
1.043513e+003,2.457152e+001
1.045441e+003,2.576044e+001
1.047370e+003,2.199950e+001
1.049298e+003,1.560861e+001
1.051227e+003,1.230748e+001
1.053155e+003,1.334341e+001
1.055083e+003,1.354923e+001
1.057012e+003,9.944576e+000
1.058940e+003,5.973184e+000
1.060869e+003,4.800198e+000
1.062797e+003,6.628977e+000
1.064726e+003,1.008811e+001
1.066654e+003,1.634330e+001
1.068583e+003,2.295911e+001
1.070511e+003,2.894377e+001
1.072440e+003,3.432393e+001
1.074368e+003,3.818016e+001
1.076297e+003,3.467004e+001
1.078225e+003,3.623681e+001
1.080154e+003,4.953365e+001
1.082082e+003,7.133338e+001
1.084010e+003,9.292477e+001
1.085939e+003,1.175075e+002
1.087867e+003,1.340152e+002
1.089796e+003,1.363800e+002
1.091724e+003,1.296840e+002
1.093653e+003,1.179595e+002
1.095581e+003,9.898293e+001
1.097510e+003,8.195576e+001
1.099438e+003,6.878831e+001
1.101367e+003,5.703014e+001
1.103295e+003,4.464766e+001
1.105224e+003,3.147100e+001
1.107152e+003,2.155612e+001
1.109081e+003,1.503889e+001
1.111009e+003,1.138418e+001
1.112938e+003,1.115433e+001
1.114866e+003,1.366621e+001
1.116794e+003,1.692783e+001
1.118723e+003,2.001302e+001
1.120651e+003,2.640333e+001
1.122580e+003,4.233114e+001
1.124508e+003,5.914567e+001
1.126437e+003,6.790823e+001
1.128365e+003,6.701842e+001
1.130294e+003,6.268270e+001
1.132222e+003,5.246882e+001
1.134151e+003,4.188420e+001
1.136079e+003,3.360342e+001
1.138008e+003,2.765179e+001
1.139936e+003,2.298550e+001
1.141865e+003,1.915282e+001
1.143793e+003,1.720392e+001
1.145721e+003,1.753811e+001
1.147650e+003,2.007728e+001
1.149578e+003,2.462279e+001
1.151507e+003,3.136454e+001
1.153435e+003,3.925187e+001
1.155364e+003,5.170490e+001
1.157292e+003,6.211003e+001
1.159221e+003,6.627088e+001
1.161149e+003,6.390309e+001
1.163078e+003,5.775946e+001
1.165006e+003,4.337712e+001
1.166935e+003,3.058621e+001
1.168863e+003,2.260082e+001
1.170792e+003,1.840854e+001
1.172720e+003,1.552677e+001
1.174648e+003,1.429767e+001
1.176577e+003,1.325044e+001
1.178505e+003,1.186968e+001
1.180434e+003,1.071707e+001
1.182362e+003,1.011262e+001
1.184291e+003,1.005265e+001
1.186219e+003,1.089661e+001
1.188148e+003,1.298001e+001
1.190076e+003,1.562092e+001
1.192005e+003,1.912538e+001
1.193933e+003,2.297368e+001
1.195862e+003,2.546102e+001
1.197790e+003,2.684388e+001
1.199719e+003,2.630714e+001
1.201647e+003,2.225980e+001
1.203575e+003,1.735096e+001
1.205504e+003,1.393785e+001
1.207432e+003,1.220833e+001
1.209361e+003,1.085685e+001
1.211289e+003,9.917940e+000
1.213218e+003,9.293118e+000
1.215146e+003,8.972170e+000
1.217075e+003,8.946172e+000
1.219003e+003,9.400519e+000
1.220932e+003,1.072293e+001
1.222860e+003,1.109636e+001
1.224789e+003,8.912724e+000
1.226717e+003,6.474554e+000
1.228646e+003,5.716137e+000
1.230574e+003,6.915481e+000
1.232502e+003,6.936088e+000
1.234431e+003,3.207710e+000
1.236359e+003,1.224170e+000
1.238288e+003,3.660894e+000
1.240216e+003,8.551405e+000
1.242145e+003,1.173435e+001
1.244073e+003,1.199070e+001
1.246002e+003,1.365781e+001
1.247930e+003,1.875547e+001
1.249859e+003,2.389091e+001
1.251787e+003,2.731607e+001
1.253716e+003,2.900729e+001
1.255644e+003,2.825123e+001
1.257573e+003,2.366392e+001
1.259501e+003,1.958957e+001
1.261429e+003,1.510431e+001
1.263358e+003,1.346437e+001
1.265286e+003,1.900116e+001
1.267215e+003,3.252769e+001
1.269143e+003,4.822077e+001
1.271072e+003,6.766330e+001
1.273000e+003,8.672167e+001
1.274929e+003,1.083587e+002
1.276857e+003,1.286660e+002
1.278786e+003,1.344173e+002
1.280714e+003,1.141171e+002
1.282643e+003,9.572049e+001
1.284571e+003,7.765462e+001
1.286500e+003,6.360021e+001
1.288428e+003,5.682315e+001
1.290356e+003,5.718850e+001
1.292285e+003,6.133779e+001
1.294213e+003,7.107437e+001
1.296142e+003,8.107919e+001
1.298070e+003,9.144834e+001
1.299999e+003,9.985490e+001
1.301927e+003,1.035348e+002
1.303856e+003,1.022597e+002
1.305784e+003,9.915160e+001
1.307713e+003,9.078281e+001
1.309641e+003,8.604431e+001
1.311570e+003,8.420917e+001
1.313498e+003,8.898797e+001
1.315427e+003,1.117469e+002
1.317355e+003,1.630214e+002
1.319283e+003,2.095884e+002
1.321212e+003,2.636741e+002
1.323140e+003,2.987210e+002
1.325069e+003,2.923582e+002
1.326997e+003,2.479855e+002
1.328926e+003,2.025567e+002
1.330854e+003,1.481398e+002
1.332783e+003,1.047117e+002
1.334711e+003,7.952110e+001
1.336640e+003,6.389333e+001
1.338568e+003,4.997799e+001
1.340497e+003,3.795071e+001
1.342425e+003,3.132932e+001
1.344354e+003,3.197576e+001
1.346282e+003,3.512746e+001
1.348210e+003,4.275295e+001
1.350139e+003,4.972953e+001
1.352068e+003,4.926710e+001
1.353996e+003,4.088012e+001
1.355924e+003,3.258454e+001
1.357853e+003,2.412703e+001
1.359781e+003,1.791554e+001
1.361710e+003,1.475802e+001
1.363638e+003,1.439977e+001
1.365567e+003,1.690751e+001
1.367495e+003,2.438172e+001
1.369424e+003,2.889148e+001
1.371352e+003,2.968348e+001
1.373281e+003,2.798481e+001
1.375209e+003,2.191179e+001
1.377138e+003,1.369675e+001
1.379066e+003,1.096376e+001
1.380995e+003,1.707480e+001
1.382923e+003,2.198441e+001
1.384851e+003,2.383749e+001
1.386780e+003,2.550908e+001
1.388708e+003,2.716644e+001
1.390637e+003,2.999760e+001
1.392565e+003,3.857460e+001
1.394494e+003,5.436713e+001
1.396422e+003,7.115624e+001
1.398351e+003,9.001964e+001
1.400279e+003,1.070672e+002
1.402208e+003,1.186800e+002
1.404136e+003,1.261293e+002
1.406065e+003,1.343101e+002
1.407993e+003,1.450539e+002
1.409922e+003,1.516589e+002
1.411850e+003,1.504101e+002
1.413778e+003,1.458823e+002
1.415707e+003,1.411300e+002
1.417635e+003,1.360801e+002
1.419564e+003,1.293853e+002
1.421492e+003,1.215915e+002
1.423421e+003,1.109125e+002
1.425349e+003,9.309244e+001
1.427278e+003,7.555819e+001
1.429206e+003,6.366256e+001
1.431135e+003,5.739658e+001
1.433063e+003,5.554709e+001
1.434992e+003,5.739773e+001
1.436920e+003,6.488731e+001
1.438849e+003,8.709103e+001
1.440777e+003,1.078277e+002
1.442705e+003,1.137867e+002
1.444634e+003,1.052938e+002
1.446562e+003,9.080559e+001
1.448491e+003,6.370144e+001
1.450419e+003,4.244988e+001
1.452348e+003,3.281991e+001
1.454276e+003,2.813956e+001
1.456205e+003,2.329494e+001
1.458133e+003,1.867689e+001
1.460062e+003,1.681276e+001
1.461990e+003,1.867527e+001
1.463919e+003,2.080008e+001
1.465847e+003,2.352177e+001
1.467776e+003,2.504865e+001
1.469704e+003,2.218356e+001
1.471632e+003,1.691855e+001
1.473561e+003,1.675677e+001
1.475489e+003,2.352370e+001
1.477418e+003,3.028670e+001
1.479346e+003,3.405075e+001
1.481275e+003,3.851727e+001
1.483203e+003,4.685229e+001
1.485132e+003,5.782173e+001
1.487060e+003,6.754178e+001
1.488989e+003,7.748770e+001
1.490917e+003,8.075132e+001
1.492846e+003,7.138589e+001
1.494774e+003,5.974879e+001
1.496703e+003,4.986978e+001
1.498631e+003,4.162233e+001
1.500559e+003,3.465343e+001
1.502488e+003,2.856831e+001
1.504416e+003,2.487585e+001
1.506345e+003,2.604429e+001
1.508273e+003,2.678673e+001
1.510202e+003,2.433327e+001
1.512130e+003,2.027520e+001
1.514059e+003,1.765377e+001
1.515987e+003,1.692613e+001
1.517916e+003,1.624104e+001
1.519844e+003,1.577218e+001
1.521773e+003,1.513202e+001
1.523701e+003,1.282532e+001
1.525630e+003,1.105392e+001
1.527558e+003,1.372700e+001
1.529486e+003,2.171725e+001
1.531415e+003,2.589940e+001
1.533343e+003,2.241063e+001
1.535272e+003,2.047235e+001
1.537200e+003,2.347045e+001
1.539129e+003,2.754589e+001
1.541057e+003,2.933649e+001
1.542986e+003,2.901307e+001
1.544914e+003,2.857894e+001
1.546843e+003,2.892962e+001
1.548771e+003,2.692143e+001
1.550700e+003,1.901158e+001
1.552628e+003,1.136825e+001
1.554557e+003,7.473486e+000
1.556485e+003,6.961587e+000
1.558413e+003,9.269636e+000
1.560342e+003,1.505320e+001
1.562270e+003,1.923252e+001
1.564199e+003,1.935029e+001
1.566127e+003,1.995164e+001
1.568056e+003,2.456688e+001
1.569984e+003,3.018196e+001
1.571913e+003,3.220694e+001
1.573841e+003,3.084543e+001
1.575770e+003,3.128690e+001
1.577698e+003,3.379088e+001
1.579627e+003,3.881381e+001
1.581555e+003,4.916791e+001
1.583484e+003,5.977765e+001
1.585412e+003,6.549452e+001
1.587340e+003,6.787545e+001
1.589269e+003,7.314957e+001
1.591197e+003,8.144879e+001
1.593126e+003,9.381788e+001
1.595054e+003,1.194533e+002
1.596983e+003,1.376294e+002
1.598911e+003,1.339578e+002
1.600840e+003,1.168807e+002
1.602768e+003,1.008549e+002
1.604697e+003,8.563849e+001
1.606625e+003,7.549989e+001
1.608554e+003,7.174777e+001
1.610482e+003,7.167964e+001
1.612411e+003,7.951089e+001
1.614339e+003,8.638356e+001
1.616267e+003,8.356676e+001
1.618196e+003,7.218146e+001
1.620124e+003,6.136419e+001
1.622053e+003,5.089947e+001
1.623981e+003,4.207389e+001
1.625910e+003,3.421386e+001
1.627838e+003,2.910724e+001
1.629767e+003,2.841339e+001
1.631695e+003,3.078785e+001
1.633624e+003,3.437120e+001
1.635552e+003,3.964415e+001
1.637481e+003,4.226443e+001
1.639409e+003,4.116530e+001
1.641338e+003,3.867539e+001
1.643266e+003,3.510241e+001
1.645194e+003,3.072482e+001
1.647123e+003,2.441234e+001
1.649051e+003,1.710398e+001
1.650980e+003,1.495714e+001
1.652908e+003,2.105535e+001
1.654837e+003,2.322825e+001
1.656765e+003,1.625792e+001
1.658694e+003,9.834970e+000
1.660622e+003,6.584243e+000
1.662551e+003,6.106048e+000
1.664479e+003,8.489344e+000
1.666408e+003,1.388847e+001
1.668336e+003,1.858263e+001
1.670265e+003,2.255977e+001
1.672193e+003,2.589015e+001
1.674121e+003,2.883041e+001
1.676050e+003,3.093463e+001
1.677978e+003,3.156023e+001
1.679907e+003,3.128286e+001
1.681835e+003,3.164772e+001
1.683764e+003,3.330068e+001
1.685692e+003,3.215342e+001
1.687621e+003,2.617210e+001
1.689549e+003,2.039697e+001
1.691478e+003,1.400536e+001
1.693406e+003,9.980602e+000
1.695335e+003,1.272658e+001
1.697263e+003,1.946938e+001
1.699192e+003,2.059835e+001
1.701120e+003,1.425983e+001
1.703048e+003,9.096694e+000
1.704977e+003,5.686636e+000
1.706905e+003,3.326298e+000
1.708834e+003,1.857019e+000
1.710762e+003,1.338642e+000
1.712691e+003,2.568030e+000
1.714619e+003,4.958516e+000
1.716548e+003,5.021347e+000
1.718476e+003,1.417454e+000
1.720405e+003,-1.602593e-002
1.722333e+003,3.456765e+000
1.724262e+003,6.139622e+000
1.726190e+003,5.964860e+000
1.728119e+003,4.563952e+000
1.730047e+003,2.892522e+000
1.731975e+003,1.183738e+000
1.733904e+003,1.542741e+000
1.735832e+003,5.029483e+000
1.737761e+003,6.907595e+000
1.739689e+003,4.996975e+000
1.741618e+003,3.677813e+000
1.743546e+003,5.583497e+000
1.745475e+003,7.796696e+000
1.747403e+003,6.743950e+000
1.749332e+003,3.090623e+000
1.751260e+003,2.218566e+000
1.753189e+003,5.035912e+000
1.755117e+003,6.783926e+000
1.757046e+003,6.046179e+000
1.758974e+003,5.346143e+000
1.760902e+003,6.224578e+000
1.762831e+003,7.020157e+000
1.764759e+003,5.295698e+000
1.766688e+003,2.056347e+000
1.768616e+003,2.665060e+000
1.770545e+003,8.336429e+000
1.772473e+003,1.055905e+001
1.774402e+003,5.416171e+000
1.776330e+003,1.467729e+000
1.778259e+003,3.640901e+000
1.780187e+003,6.897009e+000
1.782116e+003,6.734334e+000
1.784044e+003,4.578806e+000
1.785973e+003,4.953805e+000
1.787901e+003,8.223361e+000
1.789829e+003,9.004870e+000
1.791758e+003,5.296207e+000
1.793686e+003,2.146400e+000
1.795615e+003,1.526599e+000
1.797543e+003,1.813441e+000
1.799472e+003,2.229063e+000
1.801400e+003,2.593614e+000
1.803329e+003,2.210812e+000
1.805257e+003,1.139259e+000
1.807186e+003,1.789432e+000
1.809114e+003,5.516838e+000
1.811043e+003,7.591219e+000
1.812971e+003,5.559870e+000
1.814900e+003,2.895206e+000
1.816828e+003,1.010274e+000
1.818756e+003,-6.223877e-002
1.820685e+003,1.276236e-001
1.822613e+003,1.347304e+000
1.824542e+003,1.558465e+000
1.826470e+003,5.124521e-002
1.828399e+003,-1.295286e-001
1.830327e+003,3.033205e+000
1.832256e+003,5.564468e+000
1.834184e+003,5.430988e+000
1.836113e+003,4.553659e+000
1.838041e+003,4.823639e+000
1.839970e+003,5.891850e+000
1.841898e+003,6.561457e+000
1.843827e+003,6.926142e+000
1.845755e+003,6.520443e+000
1.847684e+003,4.049514e+000
1.849612e+003,2.704418e+000
1.851541e+003,4.266096e+000
1.853469e+003,5.803127e+000
1.855397e+003,5.388326e+000
1.857326e+003,3.834899e+000
1.859254e+003,2.149072e+000
1.861183e+003,3.202449e-001
1.863111e+003,1.386707e-002
1.865040e+003,2.245842e+000
1.866968e+003,3.759883e+000
1.868897e+003,4.647668e+000
1.870825e+003,4.377855e+000
1.872754e+003,1.343117e+000
1.874682e+003,-1.561330e+000
1.876611e+003,-1.686300e+000
1.878539e+003,2.020919e-001
1.880468e+003,2.266398e+000
1.882396e+003,4.603896e+000
1.884324e+003,5.208042e+000
1.886253e+003,2.945450e+000
1.888181e+003,1.876607e+000
1.890110e+003,3.967582e+000
1.892038e+003,6.018188e+000
1.893967e+003,6.653229e+000
1.895895e+003,6.242912e+000
1.897824e+003,4.593603e+000
1.899752e+003,2.258998e+000
1.901681e+003,1.058787e+000
1.903609e+003,1.079735e+000
1.905538e+003,1.433607e+000
1.907466e+003,2.160952e+000
1.909395e+003,2.826304e+000
1.911323e+003,3.763006e+000
1.913251e+003,4.066015e+000
1.915180e+003,2.188214e+000
1.917108e+003,1.007570e-001
1.919037e+003,8.622651e-001
1.920965e+003,3.879520e+000
1.922894e+003,5.376869e+000
1.924822e+003,4.674968e+000
1.926751e+003,5.080279e+000
1.928679e+003,8.734303e+000
1.930608e+003,1.047738e+001
1.932536e+003,8.114640e+000
1.934465e+003,5.039186e+000
1.936393e+003,2.158447e+000
1.938322e+003,3.515276e-001
1.940250e+003,1.939581e+000
1.942178e+003,6.110657e+000
1.944107e+003,6.384445e+000
1.946035e+003,1.002749e+000
1.947964e+003,-7.083992e-001
1.949892e+003,4.561904e+000
1.951821e+003,7.815533e+000
1.953749e+003,5.743878e+000
1.955678e+003,2.769107e+000
1.957606e+003,4.643176e-001
1.959535e+003,-1.222188e+000
1.961463e+003,-2.844254e+000
1.963392e+003,-3.848010e+000
1.965320e+003,-1.828479e+000
1.967249e+003,3.321530e+000
1.969177e+003,6.965612e+000
1.971105e+003,8.444923e+000
1.973034e+003,8.945767e+000
1.974962e+003,8.025305e+000
1.976891e+003,7.261604e+000
1.978819e+003,8.041271e+000
1.980748e+003,8.690988e+000
1.982676e+003,7.279572e+000
1.984605e+003,4.645110e+000
1.986533e+003,2.523631e+000
1.988462e+003,8.574362e-001
1.990390e+003,8.750537e-001
1.992319e+003,3.585714e+000
1.994247e+003,6.223605e+000
1.996176e+003,1.040629e+001
1.998104e+003,1.217171e+001
2.000032e+003,8.052205e+000
2.001961e+003,3.879710e+000
2.003889e+003,3.689116e+000
2.005818e+003,5.590429e+000
2.007746e+003,7.181648e+000
2.009675e+003,8.427895e+000
2.011603e+003,9.336294e+000
2.013532e+003,9.979246e+000
2.015460e+003,8.841012e+000
2.017389e+003,4.680058e+000
2.019317e+003,2.460307e+000
2.021246e+003,5.083549e+000
2.023174e+003,7.195303e+000
2.025103e+003,4.581696e+000
2.027031e+003,1.931623e+000
2.028959e+003,4.655052e+000
2.030888e+003,9.545809e+000
2.032816e+003,9.553205e+000
2.034745e+003,5.121996e+000
2.036673e+003,4.411808e+000
2.038602e+003,9.764752e+000
2.040530e+003,1.193633e+001
2.042459e+003,8.093781e+000
2.044387e+003,5.155410e+000
2.046316e+003,4.405661e+000
2.048244e+003,4.522370e+000
2.050173e+003,6.071270e+000
2.052101e+003,7.141880e+000
2.054030e+003,4.934754e+000
2.055958e+003,1.233564e+000
2.057886e+003,3.787899e-001
2.059815e+003,2.114462e+000
2.061743e+003,3.828728e+000
2.063672e+003,5.447633e+000
2.065600e+003,6.848764e+000
2.067529e+003,8.394718e+000
2.069457e+003,8.636688e+000
2.071386e+003,6.380081e+000
2.073314e+003,3.798176e+000
2.075243e+003,4.592687e-001
2.077171e+003,-1.321413e+000
2.079100e+003,2.157700e+000
2.081028e+003,7.939486e+000
2.082957e+003,1.031424e+001
2.084885e+003,9.460099e+000
2.086813e+003,7.504119e+000
2.088742e+003,3.579236e+000
2.090670e+003,1.193630e+000
2.092599e+003,1.152439e+000
2.094527e+003,1.030196e+000
2.096456e+003,-2.882497e-001
2.098384e+003,-5.933827e-001
2.100313e+003,2.428696e+000
2.102241e+003,5.033678e+000
2.104170e+003,4.065226e+000
2.106098e+003,1.784570e+000
2.108027e+003,9.098306e-001
2.109955e+003,1.145623e+000
2.111884e+003,1.997162e+000
2.113812e+003,3.436205e+000
2.115740e+003,3.148472e+000
2.117669e+003,1.786917e-001
2.119597e+003,-1.841022e+000
2.121526e+003,-2.466027e+000
2.123454e+003,-2.165361e+000
2.125383e+003,-4.083205e-001
2.127311e+003,1.474231e+000
2.129240e+003,3.718706e+000
2.131168e+003,4.947535e+000
2.133097e+003,2.604818e+000
2.135025e+003,-9.016373e-001
2.136954e+003,-6.091999e-001
2.138882e+003,2.530106e+000
2.140811e+003,3.823784e+000
2.142739e+003,3.187521e+000
2.144667e+003,1.560553e+000
2.146596e+003,-1.494661e+000
2.148524e+003,-3.015337e+000
2.150453e+003,-1.848556e+000
2.152381e+003,-2.266258e-001
2.154310e+003,9.492782e-001
2.156238e+003,2.696695e+000
2.158167e+003,7.184123e+000
2.160095e+003,1.082011e+001
2.162024e+003,9.389882e+000
2.163952e+003,5.465169e+000
2.165881e+003,2.904522e+000
2.167809e+003,1.797570e+000
2.169738e+003,3.366461e+000
2.171666e+003,7.691815e+000
2.173594e+003,9.916098e+000
2.175523e+003,9.640824e+000
2.177451e+003,7.803587e+000
2.179380e+003,3.264190e+000
2.181308e+003,8.551321e-001
2.183237e+003,4.175617e+000
2.185165e+003,6.679632e+000
2.187094e+003,4.600432e+000
2.189022e+003,1.807786e+000
2.190951e+003,7.987008e-001
2.192879e+003,8.891683e-001
2.194808e+003,1.332427e+000
2.196736e+003,2.141149e+000
2.198665e+003,3.647351e+000
2.200593e+003,5.794314e+000
2.202521e+003,6.478121e+000
2.204450e+003,5.569995e+000
2.206378e+003,4.711458e+000
2.208307e+003,4.036236e+000
2.210235e+003,3.353431e+000
2.212164e+003,2.136271e+000
2.214092e+003,2.066302e+000
2.216021e+003,5.737840e+000
2.217949e+003,7.956769e+000
2.219878e+003,4.912218e+000
2.221806e+003,1.036308e+000
2.223735e+003,-1.370403e+000
2.225663e+003,-1.664634e+000
2.227592e+003,3.222206e+000
2.229520e+003,1.028426e+001
2.231448e+003,1.007061e+001
2.233377e+003,3.576057e+000
2.235305e+003,8.435249e-001
2.237234e+003,2.085179e+000
2.239162e+003,3.441802e+000
2.241091e+003,4.638993e+000
2.243019e+003,5.644429e+000
2.244948e+003,6.408086e+000
2.246876e+003,7.082306e+000
2.248805e+003,7.861654e+000
2.250733e+003,8.326130e+000
2.252662e+003,7.548542e+000
2.254590e+003,7.323969e+000
2.256519e+003,1.078497e+001
2.258447e+003,1.342439e+001
2.260375e+003,8.952240e+000
2.262304e+003,1.766631e+000
2.264232e+003,-7.879055e-001
2.266161e+003,2.386999e-001
2.268089e+003,2.381681e+000
2.270018e+003,5.315807e+000
2.271946e+003,6.628412e+000
2.273875e+003,6.085632e+000
2.275803e+003,4.952183e+000
2.277732e+003,2.318445e+000
2.279660e+003,1.436971e+000
2.281589e+003,3.689976e+000
2.283517e+003,5.887706e+000
2.285446e+003,8.327939e+000
2.287374e+003,9.508938e+000
2.289302e+003,8.565020e+000
2.291231e+003,6.693400e+000
2.293159e+003,3.041655e+000
2.295088e+003,2.860198e-001
2.297016e+003,1.833785e+000
2.298945e+003,4.833717e+000
2.300873e+003,4.717913e+000
2.302802e+003,3.248848e+000
2.304730e+003,6.406779e+000
2.306659e+003,1.291230e+001
2.308587e+003,1.104244e+001
2.310516e+003,-1.177875e+000
2.312444e+003,-4.216120e+000
2.314373e+003,4.097598e+000
2.316301e+003,8.459657e+000
2.318229e+003,6.561191e+000
2.320158e+003,5.196130e+000
2.322086e+003,6.077567e+000
2.324015e+003,6.556830e+000
2.325943e+003,5.629579e+000
2.327872e+003,4.394303e+000
2.329800e+003,2.186219e+000
2.331729e+003,1.145570e+000
2.333657e+003,3.798527e+000
2.335586e+003,6.805417e+000
2.337514e+003,7.661901e+000
2.339443e+003,6.912370e+000
2.341371e+003,4.406921e+000
2.343300e+003,1.249073e+000
2.345228e+003,-5.099567e-001
2.347156e+003,-1.094902e+000
2.349085e+003,-1.428405e+000
2.351013e+003,-1.423692e+000
2.352942e+003,6.075836e-001
2.354870e+003,5.327119e+000
2.356799e+003,7.793342e+000
2.358727e+003,7.167655e+000
2.360656e+003,6.687580e+000
2.362584e+003,6.356486e+000
2.364513e+003,6.506908e+000
2.366441e+003,7.689677e+000
2.368370e+003,7.940791e+000
2.370298e+003,5.780706e+000
2.372227e+003,4.369397e+000
2.374155e+003,6.099563e+000
2.376083e+003,7.418093e+000
2.378012e+003,6.114532e+000
2.379940e+003,4.215924e+000
2.381869e+003,2.606526e+000
2.383797e+003,1.712034e+000
2.385726e+003,2.271004e+000
2.387654e+003,3.582381e+000
2.389583e+003,4.662351e+000
2.391511e+003,5.747250e+000
2.393440e+003,8.150814e+000
2.395368e+003,1.087412e+001
2.397297e+003,9.492346e+000
2.399225e+003,4.509013e+000
2.401154e+003,3.230139e+000
2.403082e+003,6.334402e+000
2.405010e+003,7.523497e+000
2.406939e+003,6.116652e+000
2.408867e+003,6.690838e+000
2.410796e+003,1.039936e+001
2.412724e+003,1.098249e+001
2.414653e+003,6.058167e+000
2.416581e+003,3.242703e+000
2.418510e+003,6.136800e+000
2.420438e+003,7.822031e+000
2.422367e+003,4.993283e+000
2.424295e+003,2.797213e+000
2.426224e+003,2.951385e+000
2.428152e+003,4.161697e+000
2.430081e+003,7.391046e+000
2.432009e+003,9.533499e+000
2.433938e+003,7.699133e+000
2.435866e+003,5.396204e+000
2.437794e+003,5.468287e+000
2.439723e+003,6.506338e+000
2.441651e+003,7.832939e+000
2.443580e+003,8.478870e+000
2.445508e+003,5.789620e+000
2.447437e+003,1.819745e+000
2.449365e+003,1.615195e+000
2.451294e+003,4.112096e+000
2.453222e+003,5.072556e+000
2.455151e+003,5.052293e+000
2.457079e+003,7.409109e+000
2.459008e+003,1.179343e+001
2.460936e+003,1.289115e+001
2.462865e+003,1.010910e+001
2.464793e+003,7.394685e+000
2.466721e+003,4.227481e+000
2.468650e+003,2.970701e+000
2.470578e+003,4.280379e+000
2.472507e+003,4.965308e+000
2.474435e+003,4.927059e+000
2.476364e+003,2.921148e+000
2.478292e+003,-3.359136e+000
2.480221e+003,-5.441714e+000
2.482149e+003,3.334064e+000
2.484078e+003,9.157142e+000
2.486006e+003,5.636395e+000
2.487935e+003,3.707956e+000
2.489863e+003,1.042467e+001
2.491792e+003,1.377479e+001
2.493720e+003,4.997494e+000
2.495648e+003,-1.517733e+000
2.497577e+003,6.023737e+000
2.499505e+003,1.346248e+001
2.501434e+003,9.163050e+000
2.503362e+003,3.487144e+000
2.505291e+003,5.668508e+000
2.507219e+003,1.015265e+001
2.509148e+003,1.204000e+001
2.511076e+003,1.226223e+001
2.513005e+003,1.081070e+001
2.514933e+003,9.317598e+000
2.516862e+003,1.068652e+001
2.518790e+003,1.335201e+001
2.520719e+003,1.480053e+001
2.522647e+003,1.504633e+001
2.524575e+003,1.353321e+001
2.526504e+003,1.090555e+001
2.528432e+003,9.937632e+000
2.530361e+003,1.033549e+001
2.532289e+003,1.064895e+001
2.534218e+003,1.076702e+001
2.536146e+003,9.980818e+000
2.538075e+003,8.289805e+000
2.540003e+003,6.666837e+000
2.541932e+003,4.889929e+000
2.543860e+003,5.700402e+000
2.545789e+003,9.892881e+000
2.547717e+003,1.129919e+001
2.549646e+003,9.527242e+000
2.551574e+003,6.672419e+000
2.553502e+003,2.141532e+000
2.555431e+003,2.688103e+000
2.557359e+003,1.272818e+001
2.559288e+003,1.767601e+001
2.561216e+003,1.255635e+001
2.563145e+003,9.282170e+000
2.565073e+003,8.996635e+000
2.567002e+003,9.214117e+000
2.568930e+003,9.693603e+000
2.570859e+003,1.017859e+001
2.572787e+003,1.097214e+001
2.574716e+003,1.095867e+001
2.576644e+003,7.925601e+000
2.578573e+003,7.129606e+000
2.580501e+003,1.240528e+001
2.582429e+003,1.610301e+001
2.584358e+003,1.525615e+001
2.586287e+003,1.444647e+001
2.588215e+003,1.612499e+001
2.590144e+003,1.700945e+001
2.592072e+003,1.578605e+001
2.594000e+003,1.312638e+001
2.595929e+003,5.072140e+000
2.597857e+003,1.522817e+000
2.599786e+003,1.368642e+001
2.601714e+003,2.403613e+001
2.603643e+003,2.173503e+001
2.605571e+003,1.642722e+001
2.607500e+003,1.260024e+001
2.609428e+003,1.060568e+001
2.611357e+003,1.129720e+001
2.613285e+003,1.325204e+001
2.615214e+003,1.634073e+001
2.617142e+003,1.901304e+001
2.619071e+003,1.966398e+001
2.620999e+003,1.954482e+001
2.622927e+003,2.036827e+001
2.624856e+003,2.028074e+001
2.626784e+003,1.530757e+001
2.628713e+003,1.052118e+001
2.630641e+003,1.275582e+001
2.632570e+003,1.744043e+001
2.634498e+003,2.074732e+001
2.636427e+003,2.160332e+001
2.638355e+003,1.547135e+001
2.640284e+003,9.100043e+000
2.642212e+003,1.374754e+001
2.644141e+003,2.186144e+001
2.646069e+003,2.193390e+001
2.647998e+003,1.798032e+001
2.649926e+003,1.519700e+001
2.651854e+003,1.392466e+001
2.653783e+003,1.583692e+001
2.655711e+003,1.885971e+001
2.657640e+003,1.946491e+001
2.659568e+003,1.898562e+001
2.661497e+003,2.014064e+001
2.663425e+003,2.191370e+001
2.665354e+003,2.230896e+001
2.667282e+003,2.170608e+001
2.669211e+003,1.995046e+001
2.671139e+003,1.838088e+001
2.673068e+003,2.019489e+001
2.674996e+003,2.379897e+001
2.676925e+003,2.688857e+001
2.678853e+003,2.842909e+001
2.680781e+003,2.410733e+001
2.682710e+003,1.721367e+001
2.684638e+003,1.570990e+001
2.686567e+003,1.784735e+001
2.688495e+003,2.094972e+001
2.690424e+003,2.391493e+001
2.692352e+003,2.281155e+001
2.694281e+003,2.002264e+001
2.696209e+003,2.286507e+001
2.698138e+003,2.844320e+001
2.700066e+003,2.872459e+001
2.701995e+003,2.617005e+001
2.703923e+003,2.633522e+001
2.705852e+003,2.800399e+001
2.707780e+003,2.875399e+001
2.709708e+003,2.839427e+001
2.711637e+003,2.476202e+001
2.713565e+003,2.055422e+001
2.715494e+003,2.426045e+001
2.717422e+003,3.099008e+001
2.719351e+003,2.933868e+001
2.721279e+003,2.418085e+001
2.723208e+003,2.784922e+001
2.725136e+003,3.490329e+001
2.727065e+003,3.083214e+001
2.728993e+003,2.302307e+001
2.730922e+003,2.949106e+001
2.732850e+003,4.053467e+001
2.734779e+003,3.803944e+001
2.736707e+003,2.894957e+001
2.738635e+003,2.544975e+001
2.740564e+003,2.508707e+001
2.742492e+003,2.230890e+001
2.744421e+003,2.065092e+001
2.746349e+003,2.786763e+001
2.748278e+003,3.738375e+001
2.750206e+003,3.924646e+001
2.752135e+003,3.761217e+001
2.754063e+003,3.873304e+001
2.755992e+003,3.987382e+001
2.757920e+003,3.650142e+001
2.759849e+003,3.191562e+001
2.761777e+003,2.916742e+001
2.763706e+003,2.793001e+001
2.765634e+003,2.846917e+001
2.767563e+003,2.963373e+001
2.769491e+003,3.016869e+001
2.771419e+003,3.071664e+001
2.773348e+003,3.239450e+001
2.775276e+003,3.371626e+001
2.777205e+003,3.240021e+001
2.779133e+003,3.132059e+001
2.781062e+003,3.339400e+001
2.782990e+003,3.614785e+001
2.784919e+003,3.903096e+001
2.786847e+003,4.004515e+001
2.788776e+003,3.592519e+001
2.790704e+003,3.229370e+001
2.792633e+003,3.238802e+001
2.794561e+003,3.446026e+001
2.796490e+003,3.777200e+001
2.798418e+003,4.262192e+001
2.800346e+003,5.160314e+001
2.802275e+003,5.767094e+001
2.804203e+003,5.382013e+001
2.806132e+003,5.197602e+001
2.808060e+003,5.930477e+001
2.809989e+003,6.562617e+001
2.811917e+003,6.843324e+001
2.813846e+003,6.873586e+001
2.815774e+003,6.618844e+001
2.817703e+003,6.269747e+001
2.819631e+003,5.789110e+001
2.821560e+003,5.396966e+001
2.823488e+003,5.031689e+001
2.825417e+003,5.022891e+001
2.827345e+003,5.515374e+001
2.829273e+003,5.968634e+001
2.831202e+003,6.313593e+001
2.833130e+003,6.494025e+001
2.835059e+003,6.387140e+001
2.836987e+003,6.416490e+001
2.838916e+003,6.608784e+001
2.840844e+003,6.840668e+001
2.842773e+003,7.118176e+001
2.844701e+003,7.132241e+001
2.846630e+003,6.792863e+001
2.848558e+003,6.655505e+001
2.850487e+003,6.728135e+001
2.852415e+003,6.886877e+001
2.854344e+003,7.109660e+001
2.856272e+003,7.130805e+001
2.858200e+003,7.007645e+001
2.860129e+003,7.365509e+001
2.862057e+003,8.070466e+001
2.863986e+003,8.233638e+001
2.865914e+003,8.102496e+001
2.867843e+003,8.551610e+001
2.869771e+003,9.325535e+001
2.871700e+003,9.872144e+001
2.873628e+003,1.028554e+002
2.875557e+003,1.081687e+002
2.877485e+003,1.128931e+002
2.879414e+003,1.151843e+002
2.881342e+003,1.143984e+002
2.883271e+003,1.080826e+002
2.885199e+003,1.002679e+002
2.887127e+003,9.371178e+001
2.889056e+003,8.913250e+001
2.890984e+003,8.721609e+001
2.892913e+003,8.736387e+001
2.894841e+003,9.030143e+001
2.896770e+003,9.359919e+001
2.898698e+003,9.326393e+001
2.900627e+003,9.740363e+001
2.902555e+003,1.114989e+002
2.904484e+003,1.251085e+002
2.906412e+003,1.336609e+002
2.908341e+003,1.446657e+002
2.910269e+003,1.573237e+002
2.912198e+003,1.779693e+002
2.914126e+003,2.031654e+002
2.916054e+003,2.450951e+002
2.917983e+003,2.988421e+002
2.919911e+003,4.182604e+002
2.921840e+003,6.371163e+002
2.923768e+003,8.275821e+002
2.925697e+003,1.001170e+003
2.927625e+003,9.860452e+002
2.929554e+003,7.969648e+002
2.931482e+003,6.213013e+002
2.933411e+003,4.730212e+002
2.935339e+003,3.944452e+002
2.937268e+003,3.815962e+002
2.939196e+003,4.375155e+002
2.941125e+003,5.355522e+002
2.943053e+003,6.285881e+002
2.944981e+003,7.048735e+002
2.946910e+003,7.310571e+002
2.948838e+003,7.424121e+002
2.950767e+003,8.063840e+002
2.952695e+003,8.525903e+002
2.954624e+003,8.341763e+002
2.956552e+003,7.567151e+002
2.958481e+003,5.808262e+002
2.960409e+003,4.105719e+002
2.962338e+003,2.932471e+002
2.964266e+003,2.119039e+002
2.966195e+003,1.706770e+002
2.968123e+003,1.429680e+002
2.970052e+003,1.193302e+002
2.971980e+003,1.101134e+002
2.973908e+003,1.165218e+002
2.975837e+003,1.329606e+002
2.977765e+003,1.555793e+002
2.979694e+003,2.237943e+002
2.981622e+003,3.670314e+002
2.983551e+003,4.099035e+002
2.985479e+003,3.516315e+002
2.987408e+003,2.716913e+002
2.989336e+003,1.800049e+002
2.991265e+003,1.186883e+002
2.993193e+003,8.450450e+001
2.995122e+003,7.486912e+001
2.997050e+003,7.817158e+001
2.998979e+003,6.923011e+001
3.000907e+003,5.798544e+001
3.002835e+003,5.708880e+001
3.004764e+003,6.010734e+001
3.006692e+003,6.263539e+001
3.008621e+003,6.363115e+001
3.010549e+003,6.163184e+001
3.012478e+003,5.941681e+001
3.014406e+003,5.954937e+001
3.016335e+003,5.779398e+001
3.018263e+003,4.808097e+001
3.020192e+003,4.649322e+001
3.022120e+003,5.871752e+001
3.024049e+003,6.367621e+001
3.025977e+003,5.520200e+001
3.027906e+003,4.862820e+001
3.029834e+003,4.437256e+001
3.031762e+003,4.566429e+001
3.033691e+003,5.161093e+001
3.035619e+003,5.272610e+001
3.037548e+003,5.034381e+001
3.039476e+003,5.164276e+001
3.041405e+003,5.491137e+001
3.043333e+003,5.509610e+001
3.045262e+003,5.504137e+001
3.047190e+003,6.093344e+001
3.049119e+003,6.573943e+001
3.051047e+003,5.913873e+001
3.052976e+003,5.303211e+001
3.054904e+003,5.682988e+001
3.056833e+003,5.944361e+001
3.058761e+003,5.461188e+001
3.060689e+003,4.959572e+001
3.062618e+003,4.528734e+001
3.064546e+003,4.366463e+001
3.066475e+003,4.528162e+001
3.068403e+003,4.767222e+001
3.070332e+003,5.071908e+001
3.072260e+003,5.430135e+001
3.074189e+003,5.831282e+001
3.076117e+003,5.464133e+001
3.078046e+003,4.491715e+001
3.079974e+003,3.236372e+001
3.081903e+003,2.253305e+001
3.083831e+003,3.410122e+001
3.085760e+003,5.007285e+001
3.087688e+003,4.492409e+001
3.089616e+003,3.637402e+001
3.091545e+003,3.896444e+001
3.093473e+003,4.304419e+001
3.095402e+003,4.311639e+001
3.097330e+003,4.344276e+001
3.099259e+003,4.626803e+001
3.101187e+003,4.648212e+001
3.103116e+003,3.818990e+001
3.105044e+003,3.868176e+001
3.106973e+003,4.983792e+001
3.108901e+003,5.115054e+001
3.110830e+003,4.221490e+001
3.112758e+003,3.959099e+001
3.114687e+003,4.214254e+001
3.116615e+003,4.285849e+001
3.118543e+003,4.377151e+001
3.120472e+003,5.140432e+001
3.122400e+003,5.890441e+001
3.124329e+003,5.679353e+001
3.126257e+003,5.270856e+001
3.128186e+003,5.139076e+001
3.130114e+003,5.159315e+001
3.132043e+003,5.328813e+001
3.133971e+003,5.558535e+001
3.135900e+003,5.940005e+001
3.137828e+003,5.996152e+001
3.139757e+003,5.588177e+001
3.141685e+003,5.928838e+001
3.143614e+003,7.203718e+001
3.145542e+003,7.242959e+001
3.147470e+003,6.352339e+001
3.149399e+003,6.648504e+001
3.151327e+003,7.610023e+001
3.153256e+003,8.500891e+001
3.155184e+003,9.009703e+001
3.157113e+003,8.129019e+001
3.159041e+003,7.535667e+001
3.160970e+003,8.659610e+001
3.162898e+003,9.878208e+001
3.164827e+003,1.060452e+002
3.166755e+003,1.096075e+002
3.168684e+003,1.085849e+002
3.170612e+003,1.102215e+002
3.172541e+003,1.161405e+002
3.174469e+003,1.208209e+002
3.176397e+003,1.241791e+002
3.178326e+003,1.281358e+002
3.180254e+003,1.313250e+002
3.182183e+003,1.281170e+002
3.184111e+003,1.232826e+002
3.186040e+003,1.251139e+002
3.187968e+003,1.284479e+002
3.189897e+003,1.289137e+002
3.191825e+003,1.294126e+002
3.193754e+003,1.298029e+002
3.195682e+003,1.346708e+002
3.197611e+003,1.480671e+002
3.199539e+003,1.517535e+002
3.201468e+003,1.406920e+002
3.203396e+003,1.392366e+002
3.205324e+003,1.481935e+002
3.207253e+003,1.463498e+002
3.209181e+003,1.380237e+002
3.211110e+003,1.376948e+002
3.213038e+003,1.386592e+002
3.214967e+003,1.273730e+002
3.216895e+003,1.162379e+002
3.218824e+003,1.162451e+002
3.220752e+003,1.171741e+002
3.222681e+003,1.146481e+002
3.224609e+003,1.107490e+002
3.226538e+003,1.062230e+002
3.228466e+003,9.730719e+001
3.230395e+003,8.248215e+001
3.232323e+003,8.008233e+001
3.234251e+003,8.855025e+001
3.236180e+003,9.056069e+001
3.238108e+003,8.729359e+001
3.240037e+003,7.864861e+001
3.241965e+003,7.058169e+001
3.243894e+003,7.280922e+001
3.245822e+003,7.407543e+001
3.247751e+003,6.536025e+001
3.249679e+003,6.003368e+001
3.251608e+003,6.492691e+001
3.253536e+003,7.016747e+001
3.255465e+003,7.524045e+001
3.257393e+003,7.712920e+001
3.259322e+003,7.594408e+001
3.261250e+003,7.821383e+001
3.263178e+003,8.201456e+001
3.265107e+003,8.152155e+001
3.267035e+003,7.858978e+001
3.268964e+003,7.295780e+001
3.270892e+003,6.961040e+001
3.272821e+003,7.496723e+001
3.274749e+003,7.717524e+001
3.276678e+003,7.014110e+001
3.278606e+003,6.657368e+001
3.280535e+003,6.914586e+001
3.282463e+003,7.037486e+001
3.284392e+003,6.997894e+001
3.286320e+003,6.582093e+001
3.288249e+003,6.125049e+001
3.290177e+003,6.843170e+001
3.292105e+003,7.664159e+001
3.294034e+003,7.246423e+001
3.295962e+003,6.735361e+001
3.297891e+003,6.950326e+001
3.299819e+003,6.994078e+001
3.301748e+003,6.562120e+001
3.303676e+003,6.505042e+001
3.305605e+003,7.098049e+001
3.307533e+003,7.047700e+001
3.309462e+003,6.484402e+001
3.311390e+003,6.182897e+001
3.313319e+003,6.032626e+001
3.315247e+003,5.684119e+001
3.317176e+003,5.596099e+001
3.319104e+003,6.625185e+001
3.321032e+003,7.150787e+001
3.322961e+003,5.988163e+001
3.324889e+003,5.072758e+001
3.326818e+003,4.614118e+001
3.328746e+003,4.819065e+001
3.330675e+003,5.617834e+001
3.332603e+003,5.669360e+001
3.334532e+003,5.183345e+001
3.336460e+003,4.577847e+001
3.338389e+003,4.112372e+001
3.340317e+003,4.264790e+001
3.342246e+003,4.330602e+001
3.344174e+003,3.782868e+001
3.346103e+003,3.431065e+001
3.348031e+003,3.547927e+001
3.349959e+003,3.391244e+001
3.351888e+003,2.871047e+001
3.353816e+003,2.834521e+001
3.355745e+003,3.052542e+001
3.357673e+003,2.638079e+001
3.359602e+003,2.236018e+001
3.361530e+003,3.072243e+001
3.363459e+003,3.751790e+001
3.365387e+003,3.380912e+001
3.367316e+003,2.835864e+001
3.369244e+003,2.228629e+001
3.371173e+003,1.923506e+001
3.373101e+003,1.924834e+001
3.375030e+003,1.438727e+001
3.376958e+003,8.252967e+000
3.378886e+003,1.819850e+001
3.380815e+003,3.080534e+001
3.382743e+003,2.788076e+001
3.384672e+003,2.515424e+001
3.386600e+003,3.336398e+001
3.388529e+003,4.142148e+001
3.390457e+003,4.725991e+001
3.392386e+003,5.256759e+001
3.394314e+003,5.749205e+001
3.396243e+003,6.443803e+001
3.398171e+003,7.042872e+001
3.400100e+003,6.739488e+001
3.402028e+003,6.120880e+001
3.403957e+003,5.633466e+001
3.405885e+003,5.434484e+001
3.407813e+003,5.977113e+001
3.409742e+003,5.761525e+001
3.411670e+003,4.353281e+001
3.413599e+003,3.480018e+001
3.415527e+003,3.134572e+001
3.417456e+003,2.798114e+001
3.419384e+003,2.480242e+001
3.421313e+003,2.203049e+001
3.423241e+003,1.981217e+001
3.425170e+003,1.810998e+001
3.427098e+003,1.730035e+001
3.429027e+003,1.752246e+001
3.430955e+003,1.890253e+001
3.432884e+003,2.147232e+001
3.434812e+003,1.881140e+001
3.436740e+003,1.314968e+001
3.438669e+003,1.426561e+001
3.440597e+003,1.587801e+001
3.442526e+003,1.018412e+001
3.444454e+003,3.894191e+000
3.446383e+003,-1.267894e+000
3.448311e+003,-1.820480e+000
3.450240e+003,5.016066e+000
3.452168e+003,6.325410e+000
3.454097e+003,2.955233e+000
3.456025e+003,1.980695e+000
3.457954e+003,1.064617e+000
3.459882e+003,-6.726674e+000
3.461811e+003,-1.050232e+001
3.463739e+003,-1.271622e+000
3.465667e+003,5.219739e+000
3.467596e+003,2.816574e+000
3.469524e+003,-1.498176e-001
3.471453e+003,-3.064238e+000
3.473381e+003,6.056274e-001
3.475310e+003,5.830778e+000
3.477238e+003,2.394146e-004
3.479167e+003,-6.258400e+000
3.481095e+003,-4.313685e+000
3.483024e+003,-1.870390e+000
3.484952e+003,-7.713476e-001
3.486881e+003,-1.607965e+000
3.488809e+003,-4.068577e+000
3.490738e+003,-1.756158e+000
3.492666e+003,2.487329e+000
3.494594e+003,1.984323e-001
3.496523e+003,-2.264874e+000
3.498451e+003,1.751761e+000
3.500380e+003,4.095648e+000
3.502308e+003,2.277524e+000
3.504237e+003,4.585236e-001
3.506165e+003,-8.611464e-001
3.508094e+003,-2.599182e+000
3.510022e+003,-3.733487e+000
3.511951e+003,-8.459509e-001
3.513879e+003,2.508748e+000
3.515808e+003,3.567662e+000
3.517736e+003,3.483744e+000
3.519665e+003,2.259761e+000
3.521593e+003,1.799723e+000
3.523521e+003,2.264216e+000
3.525450e+003,1.169185e+000
3.527378e+003,-5.910988e-001
3.529307e+003,-2.347028e+000
3.531235e+003,-2.015064e+000
3.533164e+003,4.228533e+000
3.535092e+003,7.252971e+000
3.537021e+003,2.586272e+000
3.538949e+003,9.978935e-001
3.540878e+003,2.360050e+000
3.542806e+003,2.877524e+000
3.544735e+003,2.106870e+000
3.546663e+003,-3.261828e+000
3.548592e+003,-5.792267e+000
3.550520e+003,7.723333e-001
3.552448e+003,4.928278e+000
3.554377e+003,3.791524e+000
3.556305e+003,1.667241e+000
3.558234e+003,-1.144709e+000
3.560162e+003,-4.901682e+000
3.562091e+003,-7.348557e+000
3.564019e+003,-4.751382e+000
3.565948e+003,-1.241239e+000
3.567876e+003,2.723251e+000
3.569805e+003,3.387763e+000
3.571733e+003,5.968066e-001
3.573662e+003,-2.921209e-001
3.575590e+003,2.855043e-001
3.577519e+003,1.407609e+000
3.579447e+003,2.121767e+000
3.581376e+003,1.665469e+000
3.583304e+003,5.464800e-001
3.585233e+003,-1.340542e+000
3.587161e+003,-2.907180e+000
3.589090e+003,-3.689962e+000
3.591018e+003,-2.734599e-001
3.592947e+003,4.095984e+000
3.594875e+003,5.179597e+000
3.596803e+003,3.720615e+000
3.598732e+003,-3.367651e+000
3.600660e+003,-4.251223e+000
3.602589e+003,2.275586e+000
3.604517e+003,5.718373e+000
3.606446e+003,5.710211e+000
3.608374e+003,1.263505e-001
3.610303e+003,-5.870501e+000
3.612231e+003,-8.752863e+000
3.614160e+003,-8.903516e+000
3.616088e+003,-6.256834e+000
3.618017e+003,-3.335607e+000
3.619945e+003,-7.265541e-001
3.621874e+003,-7.935427e-001
3.623802e+003,-2.751157e+000
3.625730e+003,-8.545979e+000
3.627659e+003,-9.462468e+000
3.629587e+003,8.376814e-001
3.631516e+003,6.772480e+000
3.633444e+003,6.188200e+000
3.635373e+003,-5.248682e-001
3.637301e+003,-7.822143e+000
3.639230e+003,-2.385511e+000
3.641158e+003,4.131507e+000
3.643087e+003,4.947992e+000
3.645015e+003,2.375757e+000
3.646944e+003,-3.593766e+000
3.648872e+003,-7.783493e+000
3.650801e+003,-9.850684e+000
3.652729e+003,-8.379306e+000
3.654657e+003,-5.394934e+000
3.656586e+003,-7.759214e-001
3.658514e+003,8.400837e-001
3.660443e+003,-2.030795e+000
3.662371e+003,-1.455741e+000
3.664300e+003,1.879774e+000
3.666228e+003,3.262438e+000
3.668157e+003,2.513175e+000
3.670085e+003,-2.114390e+000
3.672014e+003,-5.901238e+000
3.673942e+003,-7.743852e+000
3.675871e+003,-7.312419e+000
3.677799e+003,-4.710758e+000
3.679728e+003,2.047439e+000
3.681656e+003,7.535599e+000
3.683584e+003,3.178534e+000
3.685513e+003,-1.285213e-001
3.687441e+003,1.979598e+000
3.689370e+003,1.445877e+000
3.691298e+003,-2.056108e+000
3.693227e+003,-1.145975e+000
3.695155e+003,1.236145e+000
3.697084e+003,6.078255e-001
3.699012e+003,1.020381e+000
3.700941e+003,5.107615e+000
3.702869e+003,4.763251e+000
3.704798e+003,-3.467381e-001
3.706726e+003,-5.726919e-001
3.708655e+003,1.206162e+000
3.710583e+003,1.119225e+000
3.712511e+003,6.262304e-001
3.714440e+003,1.782396e-001
3.716368e+003,6.652889e-001
3.718297e+003,1.862746e+000
3.720225e+003,-1.826821e+000
3.722154e+003,-6.109647e+000
3.724082e+003,-4.775006e+000
3.726011e+003,-1.874204e+000
3.727939e+003,2.258404e+000
3.729868e+003,4.267080e-001
3.731796e+003,-6.841618e+000
3.733725e+003,-5.067403e+000
3.735653e+003,-6.286168e-001
3.737582e+003,-3.379231e+000
3.739510e+003,-3.563520e+000
3.741438e+003,4.608884e+000
3.743367e+003,3.812790e+000
3.745295e+003,-4.629978e+000
3.747224e+003,1.021955e+000
3.749152e+003,8.518900e+000
3.751081e+003,2.026802e+000
3.753009e+003,-2.979269e+000
3.754938e+003,-1.238309e+000
3.756866e+003,2.525721e-001
3.758795e+003,7.519459e-001
3.760723e+003,-1.392086e+000
3.762652e+003,-4.127356e+000
3.764580e+003,-8.453409e+000
3.766509e+003,-4.817286e+000
3.768437e+003,1.096924e+001
3.770365e+003,9.021829e+000
3.772294e+003,-4.000563e+000
3.774222e+003,-4.663076e+000
3.776151e+003,-2.135921e+000
3.778079e+003,-2.954768e+000
3.780008e+003,-2.522104e+000
3.781936e+003,-1.045764e-001
3.783865e+003,2.442063e-002
3.785793e+003,-1.250059e+000
3.787722e+003,-3.460251e+000
3.789650e+003,-3.237749e+000
3.791579e+003,3.657200e+000
3.793507e+003,3.525091e+000
3.795436e+003,-3.648497e+000
3.797364e+003,-3.046740e+000
3.799292e+003,1.683344e-002
3.801221e+003,-1.574321e+000
3.803149e+003,-3.783649e+000
3.805078e+003,-5.777358e+000
3.807006e+003,-4.925522e+000
3.808935e+003,-2.460837e+000
3.810863e+003,-5.537045e+000
3.812792e+003,-7.547789e+000
3.814720e+003,-5.936673e-001
3.816649e+003,3.727057e+000
3.818577e+003,2.311175e+000
3.820506e+003,2.566338e+000
3.822434e+003,2.859792e+000
3.824363e+003,-2.967029e-001
3.826291e+003,-4.676830e+000
3.828219e+003,-9.958436e+000
3.830148e+003,-1.223246e+001
3.832076e+003,-1.109656e+001
3.834005e+003,-5.979285e+000
3.835933e+003,-1.029108e+000
3.837862e+003,-2.284947e+000
3.839790e+003,-1.972266e+000
3.841719e+003,2.145128e+000
3.843647e+003,1.837815e+000
3.845576e+003,-1.321929e+000
3.847504e+003,-1.415812e+000
3.849433e+003,-1.559304e+000
3.851361e+003,-5.308665e+000
3.853290e+003,-4.832862e+000
3.855218e+003,-2.829088e-001
3.857146e+003,-3.573566e-001
3.859075e+003,-4.912827e+000
3.861003e+003,-1.796106e+001
3.862932e+003,-2.431670e+001
3.864860e+003,-1.669567e+001
3.866789e+003,-1.015637e+001
3.868717e+003,-4.942684e+000
3.870646e+003,1.976472e-001
3.872574e+003,3.814136e+000
3.874503e+003,5.223703e+000
3.876431e+003,4.401561e+000
3.878360e+003,1.663739e+000
3.880288e+003,8.744906e-001
3.882217e+003,-3.694650e-001
3.884145e+003,-7.619113e+000
3.886073e+003,-1.104994e+001
3.888002e+003,-7.180377e+000
3.889930e+003,-3.864740e+000
3.891859e+003,-1.415514e+000
3.893787e+003,5.336282e-001
3.895716e+003,9.002501e-001
3.897644e+003,-1.017625e+000
3.899573e+003,-4.596132e+000
3.901501e+003,-9.043492e+000
3.903430e+003,-8.627880e+000
3.905358e+003,-5.535282e+000
3.907287e+003,-1.697084e-001
3.909215e+003,2.682698e+000
3.911144e+003,2.328381e+000
3.913072e+003,3.002747e+000
3.915000e+003,3.764060e+000
3.916929e+003,2.127038e+000
3.918857e+003,1.031063e+000
3.920786e+003,2.802641e+000
3.922714e+003,-1.317928e+000
3.924643e+003,-8.266712e+000
3.926571e+003,-5.976243e+000
3.928500e+003,-3.770593e+000
3.930428e+003,-8.222417e+000
3.932357e+003,-1.122283e+001
3.934285e+003,-1.141168e+001
3.936214e+003,1.424478e-001
3.938142e+003,1.030372e+001
3.940071e+003,2.912142e+000
3.941999e+003,-3.473284e+000
3.943927e+003,-5.004259e+000
3.945856e+003,-6.231844e+000
3.947784e+003,-5.862381e+000
3.949713e+003,-1.410904e-001
3.951641e+003,3.381136e+000
3.953570e+003,2.821080e+000
3.955498e+003,-5.471928e+000
3.957427e+003,-1.546994e+001
3.959355e+003,-9.446956e+000
3.961284e+003,-2.040150e+000
3.963212e+003,8.879842e-002
3.965141e+003,-8.129698e-001
3.967069e+003,-4.073855e+000
3.968998e+003,-9.105356e+000
3.970926e+003,-1.134470e+001
3.972854e+003,-6.584197e+000
3.974783e+003,-2.065118e+000
3.976711e+003,1.361119e+000
3.978640e+003,4.836305e+000
3.980568e+003,5.192297e+000
3.982497e+003,-3.478958e+000
3.984425e+003,-6.626230e+000
3.986354e+003,-1.256053e+000
3.988282e+003,-2.639427e+000
3.990211e+003,-5.488279e+000
3.992139e+003,-3.244920e+000
3.994068e+003,6.502202e-001
3.995996e+003,5.398361e+000
3.997925e+003,7.755960e+000
3.999853e+003,6.264679e+000
4.001781e+003,-5.523717e+000
4.003710e+003,-1.128688e+001
4.005638e+003,-5.538715e+000
4.007567e+003,-3.203463e+000
4.009495e+003,-2.603074e+000
4.011424e+003,2.840549e+000
4.013352e+003,6.039666e+000
4.015281e+003,2.038435e+000
4.017209e+003,1.158212e+000
4.019138e+003,1.913918e+000
4.021066e+003,4.643618e-001
4.022995e+003,-1.955552e+000
4.024923e+003,-5.205060e+000
4.026852e+003,-4.943181e+000
4.028780e+003,-2.781729e+000
4.030708e+003,-7.184368e+000
4.032637e+003,-8.533704e+000
4.034565e+003,3.032697e-001
4.036494e+003,3.131938e+000
4.038422e+003,7.178573e-002
4.040351e+003,-4.962758e+000
4.042279e+003,-7.928309e+000
4.044208e+003,-5.060380e+000
4.046136e+003,-2.254672e+000
4.048065e+003,8.199193e-002
4.049993e+003,2.656877e+000
4.051922e+003,3.266982e+000
4.053850e+003,-1.807090e-001
4.055779e+003,-1.055421e+000
4.057707e+003,3.389807e-001
4.059635e+003,-7.078968e-001
4.061564e+003,-2.599959e+000
4.063492e+003,-4.672745e+000
4.065421e+003,-5.632336e+000
4.067349e+003,-5.405200e+000
4.069278e+003,-3.398772e+000
4.071206e+003,-1.998548e+000
4.073135e+003,-4.269638e+000
4.075063e+003,-3.518334e+000
4.076992e+003,-1.240759e-001
4.078920e+003,2.400044e+000
4.080849e+003,3.466507e+000
4.082777e+003,2.454150e+000
4.084706e+003,1.210500e+000
4.086634e+003,-3.639430e-001
4.088563e+003,-4.559312e+000
4.090491e+003,-7.007383e+000
4.092419e+003,-4.772855e+000
4.094348e+003,-4.397408e+000
4.096276e+003,-5.145435e+000
4.098205e+003,6.097180e-001
4.100133e+003,4.239232e+000
4.102062e+003,2.639893e-001
4.103990e+003,-4.816789e+000
4.105919e+003,-9.101782e+000
4.107847e+003,-8.303449e+000
4.109776e+003,-4.226848e+000
4.111704e+003,6.290514e+000
4.113633e+003,4.891528e+000
4.115561e+003,-2.802261e+000
4.117490e+003,-2.366076e+000
4.119418e+003,-7.257771e-001
4.121347e+003,-4.313399e-001
4.123275e+003,-2.386092e+000
4.125204e+003,-4.348428e+000
4.127132e+003,-1.149917e+000
4.129061e+003,1.824211e+000
4.130989e+003,3.085662e+000
4.132917e+003,-2.146253e-001
4.134846e+003,-4.331809e+000
4.136774e+003,-3.000224e+000
4.138703e+003,-1.918892e+000
4.140631e+003,-2.573483e+000
4.142560e+003,9.039487e-001
4.144488e+003,3.840233e+000
4.146417e+003,-6.297375e-001
4.148345e+003,-3.902770e+000
4.150273e+003,-4.727950e+000
4.152202e+003,-1.061109e+001
4.154130e+003,-1.480632e+001
4.156059e+003,-7.367890e+000
4.157987e+003,-8.135177e+000
4.159916e+003,-1.603497e+001
4.161844e+003,-1.204491e+001
4.163773e+003,-5.925665e+000
4.165701e+003,-3.314977e+000
4.167630e+003,-4.433547e+000
4.169558e+003,-7.744359e+000
4.171487e+003,-1.085578e+001
4.173415e+003,-8.815225e+000
4.175344e+003,1.380913e+000
4.177272e+003,6.324904e-001
4.179201e+003,-6.115564e+000
4.181129e+003,-8.924753e+000
4.183058e+003,-8.175101e+000
4.184986e+003,-4.383727e+000
4.186915e+003,-8.669345e+000
4.188843e+003,-1.294270e+001
4.190771e+003,-5.621805e+000
4.192700e+003,-2.696878e-001
4.194628e+003,8.761665e-001
4.196557e+003,-1.111804e+000
4.198485e+003,-2.237007e+000
4.200414e+003,1.526954e+000
4.202342e+003,1.906690e+000
4.204271e+003,-1.502186e+000
4.206199e+003,-9.676752e+000
4.208127e+003,-1.474986e+001
4.210056e+003,-1.219350e+001
4.211984e+003,-8.312146e+000
4.213913e+003,-4.730412e+000
4.215841e+003,-4.271049e+000
4.217770e+003,-5.115577e+000
4.219698e+003,-7.109786e+000
4.221627e+003,-5.746931e+000
4.223555e+003,-2.927993e+000
4.225484e+003,-5.364242e-001
4.227412e+003,2.582731e+000
4.229341e+003,5.760902e+000
4.231269e+003,2.704185e+000
4.233198e+003,-1.278789e+000
4.235126e+003,-3.614960e+000
4.237055e+003,-1.142172e+000
4.238983e+003,3.225084e+000
4.240912e+003,2.515697e+000
4.242840e+003,-7.540095e-001
4.244769e+003,-6.234592e+000
4.246697e+003,-5.762535e+000
4.248625e+003,-3.773591e+000
4.250554e+003,-4.868031e+000
