1.159199e+002,2.873174e+002
1.178484e+002,3.414021e+002
1.197769e+002,3.937321e+002
1.217053e+002,4.440854e+002
1.236338e+002,4.902776e+002
1.255623e+002,5.362667e+002
1.274907e+002,5.764427e+002
1.294192e+002,6.074534e+002
1.313477e+002,6.235128e+002
1.332761e+002,6.354242e+002
1.352046e+002,6.479200e+002
1.371331e+002,6.621053e+002
1.390615e+002,6.649643e+002
1.409900e+002,6.509106e+002
1.429185e+002,6.234488e+002
1.448469e+002,5.864423e+002
1.467754e+002,5.316150e+002
1.487039e+002,4.748058e+002
1.506323e+002,4.219870e+002
1.525608e+002,3.729337e+002
1.544893e+002,3.299389e+002
1.564177e+002,2.918520e+002
1.583462e+002,2.593290e+002
1.602747e+002,2.375208e+002
1.622031e+002,2.341196e+002
1.641316e+002,2.329610e+002
1.660601e+002,2.252516e+002
1.679885e+002,2.081531e+002
1.699170e+002,1.917892e+002
1.718455e+002,1.762758e+002
1.737739e+002,1.618690e+002
1.757024e+002,1.529468e+002
1.776309e+002,1.539120e+002
1.795593e+002,1.575438e+002
1.814878e+002,1.577783e+002
1.834163e+002,1.503525e+002
1.853447e+002,1.439108e+002
1.872732e+002,1.399694e+002
1.892017e+002,1.383247e+002
1.911301e+002,1.378749e+002
1.930586e+002,1.381585e+002
1.949871e+002,1.396173e+002
1.969155e+002,1.433043e+002
1.988440e+002,1.525341e+002
2.007725e+002,1.606442e+002
2.027009e+002,1.660588e+002
2.046294e+002,1.692478e+002
2.065579e+002,1.689074e+002
2.084864e+002,1.639693e+002
2.104148e+002,1.555842e+002
2.123433e+002,1.461517e+002
2.142718e+002,1.342029e+002
2.162002e+002,1.228081e+002
2.181287e+002,1.131964e+002
2.200572e+002,1.059585e+002
2.219856e+002,9.919851e+001
2.239141e+002,9.265757e+001
2.258426e+002,8.657575e+001
2.277710e+002,8.117867e+001
2.296995e+002,7.657174e+001
2.316280e+002,7.272215e+001
2.335564e+002,6.954576e+001
2.354849e+002,6.731377e+001
2.374134e+002,6.552569e+001
2.393418e+002,6.469611e+001
2.412703e+002,6.430783e+001
2.431988e+002,6.321124e+001
2.451272e+002,5.918839e+001
2.470557e+002,5.606800e+001
2.489842e+002,5.640695e+001
2.509126e+002,6.305407e+001
2.528411e+002,6.711080e+001
2.547696e+002,6.550060e+001
2.566980e+002,6.018485e+001
2.586265e+002,5.598479e+001
2.605550e+002,5.308134e+001
2.624834e+002,5.144387e+001
2.644119e+002,5.172251e+001
2.663404e+002,5.446469e+001
2.682688e+002,5.666729e+001
2.701973e+002,5.729026e+001
2.721258e+002,5.669973e+001
2.740542e+002,5.634235e+001
2.759827e+002,5.610757e+001
2.779112e+002,5.610783e+001
2.798396e+002,5.609158e+001
2.817681e+002,5.564625e+001
2.836966e+002,5.684204e+001
2.856250e+002,6.219969e+001
2.875535e+002,7.016509e+001
2.894820e+002,7.366974e+001
2.914104e+002,6.889625e+001
2.933389e+002,6.376713e+001
2.952674e+002,6.183947e+001
2.971958e+002,6.319876e+001
2.991243e+002,6.656830e+001
3.010528e+002,7.316442e+001
3.029813e+002,8.160077e+001
3.049097e+002,8.759805e+001
3.068382e+002,9.059497e+001
3.087667e+002,9.176618e+001
3.106951e+002,9.155808e+001
3.126236e+002,8.958173e+001
3.145521e+002,8.727278e+001
3.164805e+002,8.420021e+001
3.184090e+002,8.101580e+001
3.203375e+002,7.907597e+001
3.222659e+002,7.932599e+001
3.241944e+002,7.951793e+001
3.261229e+002,7.829977e+001
3.280513e+002,7.389291e+001
3.299798e+002,7.301270e+001
3.319083e+002,7.886260e+001
3.338367e+002,8.706757e+001
3.357652e+002,9.150333e+001
3.376937e+002,8.955429e+001
3.396221e+002,8.803754e+001
3.415506e+002,8.974925e+001
3.434791e+002,9.577858e+001
3.454075e+002,9.948526e+001
3.473360e+002,9.758900e+001
3.492645e+002,9.532565e+001
3.511929e+002,9.756188e+001
3.531214e+002,1.080103e+002
3.550499e+002,1.159015e+002
3.569783e+002,1.182091e+002
3.589068e+002,1.148455e+002
3.608353e+002,1.112114e+002
3.627637e+002,1.072903e+002
3.646922e+002,1.031322e+002
3.666207e+002,9.858480e+001
3.685491e+002,9.280520e+001
3.704776e+002,8.860393e+001
3.724061e+002,8.823450e+001
3.743345e+002,9.003518e+001
3.762630e+002,8.793472e+001
3.781915e+002,7.735795e+001
3.801199e+002,6.819075e+001
3.820484e+002,6.521046e+001
3.839769e+002,7.200135e+001
3.859053e+002,7.654700e+001
3.878338e+002,7.711444e+001
3.897623e+002,7.536813e+001
3.916907e+002,7.407603e+001
3.936192e+002,7.329310e+001
3.955477e+002,7.281511e+001
3.974761e+002,7.239291e+001
3.994046e+002,7.191908e+001
4.013331e+002,7.236591e+001
4.032615e+002,7.493640e+001
4.051900e+002,7.765940e+001
4.071185e+002,7.904392e+001
4.090469e+002,7.907855e+001
4.109754e+002,7.809636e+001
4.129039e+002,7.553723e+001
4.148323e+002,7.181699e+001
4.167608e+002,6.957480e+001
4.186893e+002,6.844866e+001
4.206177e+002,6.887988e+001
4.225462e+002,7.188305e+001
4.244747e+002,7.808450e+001
4.264032e+002,8.224868e+001
4.283316e+002,8.199037e+001
4.302601e+002,7.968789e+001
4.321886e+002,7.940253e+001
4.341170e+002,8.246073e+001
4.360455e+002,8.518169e+001
4.379740e+002,8.565765e+001
4.399024e+002,8.417342e+001
4.418309e+002,8.448842e+001
4.437594e+002,8.686192e+001
4.456878e+002,9.099404e+001
4.476163e+002,9.753831e+001
4.495448e+002,1.073140e+002
4.514732e+002,1.160499e+002
4.534017e+002,1.216972e+002
4.553302e+002,1.256158e+002
4.572586e+002,1.306840e+002
4.591871e+002,1.424459e+002
4.611156e+002,1.501958e+002
4.630440e+002,1.480316e+002
4.649725e+002,1.362634e+002
4.669010e+002,1.274870e+002
4.688294e+002,1.270579e+002
4.707579e+002,1.279885e+002
4.726864e+002,1.247209e+002
4.746148e+002,1.108784e+002
4.765433e+002,1.002097e+002
4.784718e+002,9.505907e+001
4.804002e+002,9.393978e+001
4.823287e+002,9.253356e+001
4.842572e+002,9.081178e+001
4.861856e+002,8.867725e+001
4.881141e+002,8.541044e+001
4.900426e+002,7.970049e+001
4.919710e+002,7.808340e+001
4.938995e+002,8.381487e+001
4.958280e+002,9.162737e+001
4.977564e+002,9.715126e+001
4.996849e+002,1.004761e+002
5.016134e+002,1.013774e+002
5.035418e+002,9.820630e+001
5.054703e+002,9.229744e+001
5.073988e+002,8.936415e+001
5.093272e+002,8.942590e+001
5.112557e+002,9.184447e+001
5.131842e+002,9.781625e+001
5.151127e+002,1.070745e+002
5.170411e+002,1.144597e+002
5.189696e+002,1.196858e+002
5.208981e+002,1.224857e+002
5.228265e+002,1.221133e+002
5.247550e+002,1.175064e+002
5.266835e+002,1.120366e+002
5.286119e+002,1.042106e+002
5.305404e+002,9.609169e+001
5.324689e+002,9.135357e+001
5.343973e+002,9.299011e+001
5.363258e+002,9.499274e+001
5.382543e+002,9.566829e+001
5.401827e+002,9.483380e+001
5.421112e+002,9.389796e+001
5.440397e+002,9.159562e+001
5.459681e+002,9.020125e+001
5.478966e+002,9.129896e+001
5.498251e+002,9.599765e+001
5.517535e+002,9.950498e+001
5.536820e+002,1.011858e+002
5.556105e+002,1.015644e+002
5.575389e+002,1.013636e+002
5.594674e+002,1.005452e+002
5.613959e+002,9.952953e+001
5.633243e+002,9.836932e+001
5.652528e+002,9.710748e+001
5.671813e+002,9.588617e+001
5.691097e+002,9.409135e+001
5.710382e+002,9.282010e+001
5.729667e+002,9.224787e+001
5.748951e+002,9.232712e+001
5.768236e+002,9.409946e+001
5.787521e+002,9.946223e+001
5.806805e+002,1.053948e+002
5.826090e+002,1.092753e+002
5.845375e+002,1.088646e+002
5.864659e+002,1.107312e+002
5.883944e+002,1.166593e+002
5.903229e+002,1.250449e+002
5.922513e+002,1.331954e+002
5.941798e+002,1.427046e+002
5.961083e+002,1.490824e+002
5.980367e+002,1.487312e+002
5.999652e+002,1.425541e+002
6.018937e+002,1.407457e+002
6.038221e+002,1.456617e+002
6.057506e+002,1.525510e+002
6.076791e+002,1.605312e+002
6.096075e+002,1.695587e+002
6.115360e+002,1.766161e+002
6.134645e+002,1.840805e+002
6.153929e+002,1.869042e+002
6.173214e+002,1.811292e+002
6.192499e+002,1.615759e+002
6.211783e+002,1.428432e+002
6.231068e+002,1.234708e+002
6.250353e+002,1.063649e+002
6.269637e+002,9.601639e+001
6.288922e+002,9.357582e+001
6.308207e+002,9.414078e+001
6.327491e+002,9.854093e+001
6.346776e+002,1.052523e+002
6.366061e+002,1.075300e+002
6.385345e+002,9.861007e+001
6.404630e+002,9.186364e+001
6.423915e+002,9.325436e+001
6.443199e+002,1.017973e+002
6.462484e+002,1.079543e+002
6.481769e+002,1.110070e+002
6.501053e+002,1.112008e+002
6.520338e+002,1.079520e+002
6.539623e+002,9.848936e+001
6.558907e+002,9.390282e+001
6.578192e+002,9.755795e+001
6.597477e+002,1.038678e+002
6.616761e+002,1.074552e+002
6.636046e+002,1.078459e+002
6.655331e+002,1.086065e+002
6.674615e+002,1.103935e+002
6.693900e+002,1.131370e+002
6.713185e+002,1.169052e+002
6.732469e+002,1.243927e+002
6.751754e+002,1.297950e+002
6.771039e+002,1.324967e+002
6.790323e+002,1.325097e+002
6.809608e+002,1.301719e+002
6.828893e+002,1.234212e+002
6.848177e+002,1.177598e+002
6.867462e+002,1.163762e+002
6.886747e+002,1.189374e+002
6.906031e+002,1.180849e+002
6.925316e+002,1.077419e+002
6.944601e+002,9.979996e+001
6.963885e+002,1.018713e+002
6.983170e+002,1.131915e+002
7.002455e+002,1.195057e+002
7.021740e+002,1.158087e+002
7.041024e+002,1.099599e+002
7.060309e+002,1.063992e+002
7.079594e+002,1.056895e+002
7.098878e+002,1.055678e+002
7.118163e+002,1.062668e+002
7.137448e+002,1.072070e+002
7.156732e+002,1.079152e+002
7.176017e+002,1.084125e+002
7.195302e+002,1.088099e+002
7.214586e+002,1.080241e+002
7.233871e+002,1.078311e+002
7.253156e+002,1.101170e+002
7.272440e+002,1.160730e+002
7.291725e+002,1.227851e+002
7.311010e+002,1.287448e+002
7.330294e+002,1.355879e+002
7.349579e+002,1.476671e+002
7.368864e+002,1.699526e+002
7.388149e+002,1.851086e+002
7.407433e+002,1.835398e+002
7.426718e+002,1.710692e+002
7.446003e+002,1.597066e+002
7.465287e+002,1.493396e+002
7.484572e+002,1.405393e+002
7.503857e+002,1.347670e+002
7.523141e+002,1.310518e+002
7.542426e+002,1.245838e+002
7.561711e+002,1.107317e+002
7.580995e+002,1.013484e+002
7.600280e+002,1.039197e+002
7.619565e+002,1.159531e+002
7.638849e+002,1.248049e+002
7.658134e+002,1.276869e+002
7.677419e+002,1.291380e+002
7.696703e+002,1.291382e+002
7.715988e+002,1.278357e+002
7.735273e+002,1.302770e+002
7.754557e+002,1.425182e+002
7.773842e+002,1.518199e+002
7.793127e+002,1.492689e+002
7.812411e+002,1.359588e+002
7.831696e+002,1.283065e+002
7.850981e+002,1.339835e+002
7.870266e+002,1.405348e+002
7.889550e+002,1.418188e+002
7.908835e+002,1.364343e+002
7.928120e+002,1.348656e+002
7.947404e+002,1.382520e+002
7.966689e+002,1.446208e+002
7.985974e+002,1.522453e+002
8.005258e+002,1.609642e+002
8.024543e+002,1.741089e+002
8.043828e+002,1.925464e+002
8.063112e+002,2.153712e+002
8.082397e+002,2.446726e+002
8.101682e+002,2.853838e+002
8.120966e+002,3.142126e+002
8.140251e+002,3.248212e+002
8.159536e+002,3.282465e+002
8.178820e+002,3.325067e+002
8.198105e+002,3.380577e+002
8.217390e+002,3.387057e+002
8.236674e+002,3.320964e+002
8.255959e+002,3.211089e+002
8.275244e+002,3.072510e+002
8.294528e+002,2.910204e+002
8.313813e+002,2.696257e+002
8.333098e+002,2.344159e+002
8.352382e+002,2.000046e+002
8.371667e+002,1.787292e+002
8.390952e+002,1.703285e+002
8.410236e+002,1.644402e+002
8.429521e+002,1.593957e+002
8.448806e+002,1.561967e+002
8.468090e+002,1.563065e+002
8.487375e+002,1.627274e+002
8.506660e+002,1.644162e+002
8.525944e+002,1.580475e+002
8.545229e+002,1.495998e+002
8.564514e+002,1.436547e+002
8.583798e+002,1.403007e+002
8.603083e+002,1.366558e+002
8.622368e+002,1.310040e+002
8.641652e+002,1.261294e+002
8.660937e+002,1.236934e+002
8.680222e+002,1.238793e+002
8.699506e+002,1.258002e+002
8.718791e+002,1.318445e+002
8.738076e+002,1.374831e+002
8.757360e+002,1.398131e+002
8.776645e+002,1.385680e+002
8.795930e+002,1.357776e+002
8.815214e+002,1.276067e+002
8.834499e+002,1.217058e+002
8.853784e+002,1.240440e+002
8.873068e+002,1.347790e+002
8.892353e+002,1.423152e+002
8.911638e+002,1.421843e+002
8.930922e+002,1.411022e+002
8.950207e+002,1.422529e+002
8.969492e+002,1.459939e+002
8.988776e+002,1.483403e+002
9.008061e+002,1.475506e+002
9.027346e+002,1.469951e+002
9.046630e+002,1.498510e+002
9.065915e+002,1.549873e+002
9.085200e+002,1.561465e+002
9.104484e+002,1.509007e+002
9.123769e+002,1.439824e+002
9.143054e+002,1.364566e+002
9.162338e+002,1.284506e+002
9.181623e+002,1.226678e+002
9.200908e+002,1.173835e+002
9.220192e+002,1.158059e+002
9.239477e+002,1.217947e+002
9.258762e+002,1.327886e+002
9.278046e+002,1.398399e+002
9.297331e+002,1.418914e+002
9.316616e+002,1.410011e+002
9.335900e+002,1.337787e+002
9.355185e+002,1.240695e+002
9.374470e+002,1.234387e+002
9.393754e+002,1.431131e+002
9.413039e+002,1.575009e+002
9.432324e+002,1.606795e+002
9.451608e+002,1.566967e+002
9.470893e+002,1.532556e+002
9.490178e+002,1.504098e+002
9.509462e+002,1.479529e+002
9.528747e+002,1.452196e+002
9.548032e+002,1.432287e+002
9.567316e+002,1.432343e+002
9.586601e+002,1.457798e+002
9.605886e+002,1.484919e+002
9.625170e+002,1.506514e+002
9.644455e+002,1.529525e+002
9.663740e+002,1.560072e+002
9.683024e+002,1.599801e+002
9.702309e+002,1.643668e+002
9.721594e+002,1.629000e+002
9.740878e+002,1.667158e+002
9.760163e+002,1.846828e+002
9.779448e+002,2.156694e+002
9.798733e+002,2.517531e+002
9.818018e+002,2.903990e+002
9.837302e+002,3.361376e+002
9.856587e+002,3.878756e+002
9.875872e+002,4.451209e+002
9.895156e+002,5.213812e+002
9.914441e+002,6.516155e+002
9.933726e+002,7.608356e+002
9.953010e+002,8.413119e+002
9.972295e+002,8.825195e+002
9.991580e+002,8.509539e+002
1.001086e+003,7.158555e+002
1.003015e+003,5.752258e+002
1.004943e+003,4.480337e+002
1.006872e+003,3.400595e+002
1.008800e+003,2.639429e+002
1.010729e+003,2.267438e+002
1.012657e+003,2.058640e+002
1.014586e+003,1.993997e+002
1.016514e+003,2.040229e+002
1.018443e+003,2.174147e+002
1.020371e+003,2.439247e+002
1.022300e+003,2.689227e+002
1.024228e+003,2.985224e+002
1.026156e+003,3.214686e+002
1.028085e+003,3.299215e+002
1.030013e+003,3.250020e+002
1.031942e+003,3.087122e+002
1.033870e+003,2.720659e+002
1.035799e+003,2.354298e+002
1.037727e+003,2.066800e+002
1.039656e+003,1.856776e+002
1.041584e+003,1.697379e+002
1.043513e+003,1.615717e+002
1.045441e+003,1.553436e+002
1.047370e+003,1.493667e+002
1.049298e+003,1.446635e+002
1.051227e+003,1.442579e+002
1.053155e+003,1.500502e+002
1.055083e+003,1.543595e+002
1.057012e+003,1.545025e+002
1.058940e+003,1.527252e+002
1.060869e+003,1.505729e+002
1.062797e+003,1.475735e+002
1.064726e+003,1.471300e+002
1.066654e+003,1.529465e+002
1.068583e+003,1.586644e+002
1.070511e+003,1.606793e+002
1.072440e+003,1.586252e+002
1.074368e+003,1.562764e+002
1.076297e+003,1.517043e+002
1.078225e+003,1.490985e+002
1.080154e+003,1.524881e+002
1.082082e+003,1.589719e+002
1.084010e+003,1.597909e+002
1.085939e+003,1.521937e+002
1.087867e+003,1.462571e+002
1.089796e+003,1.470516e+002
1.091724e+003,1.503301e+002
1.093653e+003,1.512191e+002
1.095581e+003,1.488454e+002
1.097510e+003,1.465553e+002
1.099438e+003,1.428590e+002
1.101367e+003,1.408572e+002
1.103295e+003,1.435426e+002
1.105224e+003,1.515166e+002
1.107152e+003,1.572096e+002
1.109081e+003,1.598817e+002
1.111009e+003,1.614272e+002
1.112938e+003,1.620209e+002
1.114866e+003,1.620316e+002
1.116794e+003,1.619650e+002
1.118723e+003,1.610897e+002
1.120651e+003,1.620562e+002
1.122580e+003,1.686664e+002
1.124508e+003,1.757290e+002
1.126437e+003,1.773306e+002
1.128365e+003,1.709560e+002
1.130294e+003,1.671180e+002
1.132222e+003,1.666915e+002
1.134151e+003,1.684662e+002
1.136079e+003,1.717165e+002
1.138008e+003,1.766235e+002
1.139936e+003,1.843874e+002
1.141865e+003,1.976504e+002
1.143793e+003,2.095829e+002
1.145721e+003,2.181773e+002
1.147650e+003,2.237442e+002
1.149578e+003,2.271310e+002
1.151507e+003,2.284238e+002
1.153435e+003,2.269407e+002
1.155364e+003,2.192777e+002
1.157292e+003,2.115685e+002
1.159221e+003,2.089214e+002
1.161149e+003,2.128218e+002
1.163078e+003,2.114389e+002
1.165006e+003,1.942524e+002
1.166935e+003,1.842951e+002
1.168863e+003,1.925526e+002
1.170792e+003,2.131400e+002
1.172720e+003,2.302306e+002
1.174648e+003,2.437716e+002
1.176577e+003,2.545284e+002
1.178505e+003,2.654765e+002
1.180434e+003,2.713605e+002
1.182362e+003,2.656227e+002
1.184291e+003,2.487709e+002
1.186219e+003,2.347547e+002
1.188148e+003,2.226489e+002
1.190076e+003,2.180345e+002
1.192005e+003,2.224812e+002
1.193933e+003,2.357618e+002
1.195862e+003,2.572344e+002
1.197790e+003,2.908751e+002
1.199719e+003,3.269229e+002
1.201647e+003,3.751475e+002
1.203575e+003,4.178895e+002
1.205504e+003,4.385234e+002
1.207432e+003,4.345495e+002
1.209361e+003,4.209915e+002
1.211289e+003,3.944393e+002
1.213218e+003,3.627242e+002
1.215146e+003,3.233098e+002
1.217075e+003,2.824965e+002
1.219003e+003,2.532787e+002
1.220932e+003,2.384758e+002
1.222860e+003,2.260948e+002
1.224789e+003,2.131491e+002
1.226717e+003,2.013423e+002
1.228646e+003,1.917378e+002
1.230574e+003,1.842428e+002
1.232502e+003,1.793109e+002
1.234431e+003,1.810498e+002
1.236359e+003,1.804162e+002
1.238288e+003,1.720164e+002
1.240216e+003,1.603293e+002
1.242145e+003,1.548091e+002
1.244073e+003,1.578357e+002
1.246002e+003,1.610343e+002
1.247930e+003,1.645395e+002
1.249859e+003,1.674901e+002
1.251787e+003,1.682717e+002
1.253716e+003,1.677819e+002
1.255644e+003,1.709178e+002
1.257573e+003,1.817500e+002
1.259501e+003,1.876383e+002
1.261429e+003,1.774439e+002
1.263358e+003,1.633208e+002
1.265286e+003,1.596492e+002
1.267215e+003,1.683489e+002
1.269143e+003,1.750993e+002
1.271072e+003,1.769150e+002
1.273000e+003,1.777976e+002
1.274929e+003,1.770710e+002
1.276857e+003,1.764291e+002
1.278786e+003,1.815505e+002
1.280714e+003,2.001262e+002
1.282643e+003,2.135311e+002
1.284571e+003,2.165225e+002
1.286500e+003,2.181922e+002
1.288428e+003,2.262140e+002
1.290356e+003,2.401139e+002
1.292285e+003,2.520251e+002
1.294213e+003,2.603026e+002
1.296142e+003,2.692497e+002
1.298070e+003,2.845505e+002
1.299999e+003,2.987175e+002
1.301927e+003,3.028788e+002
1.303856e+003,2.964767e+002
1.305784e+003,2.877632e+002
1.307713e+003,2.747177e+002
1.309641e+003,2.640450e+002
1.311570e+003,2.614379e+002
1.313498e+003,2.629768e+002
1.315427e+003,2.573154e+002
1.317355e+003,2.381747e+002
1.319283e+003,2.257814e+002
1.321212e+003,2.229394e+002
1.323140e+003,2.257673e+002
1.325069e+003,2.345208e+002
1.326997e+003,2.482748e+002
1.328926e+003,2.569337e+002
1.330854e+003,2.589910e+002
1.332783e+003,2.588557e+002
1.334711e+003,2.575726e+002
1.336640e+003,2.541440e+002
1.338568e+003,2.457363e+002
1.340497e+003,2.330625e+002
1.342425e+003,2.249763e+002
1.344354e+003,2.242954e+002
1.346282e+003,2.242769e+002
1.348210e+003,2.240634e+002
1.350139e+003,2.220365e+002
1.352068e+003,2.146122e+002
1.353996e+003,2.011388e+002
1.355924e+003,1.929729e+002
1.357853e+003,1.947718e+002
1.359781e+003,1.978548e+002
1.361710e+003,1.993671e+002
1.363638e+003,1.996260e+002
1.365567e+003,1.991892e+002
1.367495e+003,1.978562e+002
1.369424e+003,1.964464e+002
1.371352e+003,1.958806e+002
1.373281e+003,1.944624e+002
1.375209e+003,1.895077e+002
1.377138e+003,1.830593e+002
1.379066e+003,1.822300e+002
1.380995e+003,1.920821e+002
1.382923e+003,1.973929e+002
1.384851e+003,1.919545e+002
1.386780e+003,1.865313e+002
1.388708e+003,1.883269e+002
1.390637e+003,1.958613e+002
1.392565e+003,2.019950e+002
1.394494e+003,2.049308e+002
1.396422e+003,2.121501e+002
1.398351e+003,2.322714e+002
1.400279e+003,2.512049e+002
1.402208e+003,2.587498e+002
1.404136e+003,2.569751e+002
1.406065e+003,2.519429e+002
1.407993e+003,2.426850e+002
1.409922e+003,2.340314e+002
1.411850e+003,2.290636e+002
1.413778e+003,2.236867e+002
1.415707e+003,2.120790e+002
1.417635e+003,1.957422e+002
1.419564e+003,1.912482e+002
1.421492e+003,2.067212e+002
1.423421e+003,2.190444e+002
1.425349e+003,2.194982e+002
1.427278e+003,2.187413e+002
1.429206e+003,2.266473e+002
1.431135e+003,2.429438e+002
1.433063e+003,2.537004e+002
1.434992e+003,2.558276e+002
1.436920e+003,2.561637e+002
1.438849e+003,2.558765e+002
1.440777e+003,2.538147e+002
1.442705e+003,2.488305e+002
1.444634e+003,2.410846e+002
1.446562e+003,2.322424e+002
1.448491e+003,2.202398e+002
1.450419e+003,2.108665e+002
1.452348e+003,2.047606e+002
1.454276e+003,2.019364e+002
1.456205e+003,2.041611e+002
1.458133e+003,2.102912e+002
1.460062e+003,2.133204e+002
1.461990e+003,2.116301e+002
1.463919e+003,2.107086e+002
1.465847e+003,2.132164e+002
1.467776e+003,2.160491e+002
1.469704e+003,2.163925e+002
1.471632e+003,2.151949e+002
1.473561e+003,2.159682e+002
1.475489e+003,2.196831e+002
1.477418e+003,2.225167e+002
1.479346e+003,2.210192e+002
1.481275e+003,2.208629e+002
1.483203e+003,2.279835e+002
1.485132e+003,2.394028e+002
1.487060e+003,2.436720e+002
1.488989e+003,2.389284e+002
1.490917e+003,2.323639e+002
1.492846e+003,2.218184e+002
1.494774e+003,2.137884e+002
1.496703e+003,2.139506e+002
1.498631e+003,2.189710e+002
1.500559e+003,2.184920e+002
1.502488e+003,2.096604e+002
1.504416e+003,2.035431e+002
1.506345e+003,1.998478e+002
1.508273e+003,2.001072e+002
1.510202e+003,2.087798e+002
1.512130e+003,2.205168e+002
1.514059e+003,2.241146e+002
1.515987e+003,2.143897e+002
1.517916e+003,2.129441e+002
1.519844e+003,2.303913e+002
1.521773e+003,2.421857e+002
1.523701e+003,2.367019e+002
1.525630e+003,2.238019e+002
1.527558e+003,2.154214e+002
1.529486e+003,2.117350e+002
1.531415e+003,2.113022e+002
1.533343e+003,2.179196e+002
1.535272e+003,2.222615e+002
1.537200e+003,2.210459e+002
1.539129e+003,2.179052e+002
1.541057e+003,2.152695e+002
1.542986e+003,2.134896e+002
1.544914e+003,2.149893e+002
1.546843e+003,2.226392e+002
1.548771e+003,2.264691e+002
1.550700e+003,2.207865e+002
1.552628e+003,2.143145e+002
1.554557e+003,2.127453e+002
1.556485e+003,2.144750e+002
1.558413e+003,2.150598e+002
1.560342e+003,2.139896e+002
1.562270e+003,2.143503e+002
1.564199e+003,2.153399e+002
1.566127e+003,2.196777e+002
1.568056e+003,2.315351e+002
1.569984e+003,2.460113e+002
1.571913e+003,2.551577e+002
1.573841e+003,2.594128e+002
1.575770e+003,2.710065e+002
1.577698e+003,2.975744e+002
1.579627e+003,3.168751e+002
1.581555e+003,3.165276e+002
1.583484e+003,3.094197e+002
1.585412e+003,3.033997e+002
1.587340e+003,2.993338e+002
1.589269e+003,3.011486e+002
1.591197e+003,3.096985e+002
1.593126e+003,3.216810e+002
1.595054e+003,3.416145e+002
1.596983e+003,3.579509e+002
1.598911e+003,3.645043e+002
1.600840e+003,3.633640e+002
1.602768e+003,3.581087e+002
1.604697e+003,3.485854e+002
1.606625e+003,3.359182e+002
1.608554e+003,3.189708e+002
1.610482e+003,3.013305e+002
1.612411e+003,2.804399e+002
1.614339e+003,2.626501e+002
1.616267e+003,2.559696e+002
1.618196e+003,2.587838e+002
1.620124e+003,2.557952e+002
1.622053e+003,2.432871e+002
1.623981e+003,2.351854e+002
1.625910e+003,2.384432e+002
1.627838e+003,2.418339e+002
1.629767e+003,2.380235e+002
1.631695e+003,2.314139e+002
1.633624e+003,2.319101e+002
1.635552e+003,2.412399e+002
1.637481e+003,2.440114e+002
1.639409e+003,2.352169e+002
1.641338e+003,2.266464e+002
1.643266e+003,2.199953e+002
1.645194e+003,2.159271e+002
1.647123e+003,2.165508e+002
1.649051e+003,2.206404e+002
1.650980e+003,2.206042e+002
1.652908e+003,2.137152e+002
1.654837e+003,2.103820e+002
1.656765e+003,2.154305e+002
1.658694e+003,2.195947e+002
1.660622e+003,2.200247e+002
1.662551e+003,2.177420e+002
1.664479e+003,2.121789e+002
1.666408e+003,2.028925e+002
1.668336e+003,2.027578e+002
1.670265e+003,2.203101e+002
1.672193e+003,2.302992e+002
1.674121e+003,2.229720e+002
1.676050e+003,2.142462e+002
1.677978e+003,2.125808e+002
1.679907e+003,2.152780e+002
1.681835e+003,2.169538e+002
1.683764e+003,2.172817e+002
1.685692e+003,2.175567e+002
1.687621e+003,2.189474e+002
1.689549e+003,2.183425e+002
1.691478e+003,2.128251e+002
1.693406e+003,2.076048e+002
1.695335e+003,2.067811e+002
1.697263e+003,2.093456e+002
1.699192e+003,2.121778e+002
1.701120e+003,2.161014e+002
1.703048e+003,2.173151e+002
1.704977e+003,2.108935e+002
1.706905e+003,2.080602e+002
1.708834e+003,2.159175e+002
1.710762e+003,2.245350e+002
1.712691e+003,2.240252e+002
1.714619e+003,2.164586e+002
1.716548e+003,2.129249e+002
1.718476e+003,2.144119e+002
1.720405e+003,2.171263e+002
1.722333e+003,2.236302e+002
1.724262e+003,2.275551e+002
1.726190e+003,2.248624e+002
1.728119e+003,2.204159e+002
1.730047e+003,2.192250e+002
1.731975e+003,2.206304e+002
1.733904e+003,2.194283e+002
1.735832e+003,2.138544e+002
1.737761e+003,2.118070e+002
1.739689e+003,2.177715e+002
1.741618e+003,2.225239e+002
1.743546e+003,2.224337e+002
1.745475e+003,2.202050e+002
1.747403e+003,2.172724e+002
1.749332e+003,2.140875e+002
1.751260e+003,2.152945e+002
1.753189e+003,2.228815e+002
1.755117e+003,2.261401e+002
1.757046e+003,2.197578e+002
1.758974e+003,2.151186e+002
1.760902e+003,2.193519e+002
1.762831e+003,2.247428e+002
1.764759e+003,2.231463e+002
1.766688e+003,2.164985e+002
1.768616e+003,2.133620e+002
1.770545e+003,2.139841e+002
1.772473e+003,2.171848e+002
1.774402e+003,2.239856e+002
1.776330e+003,2.309193e+002
1.778259e+003,2.394376e+002
1.780187e+003,2.448159e+002
1.782116e+003,2.403866e+002
1.784044e+003,2.304261e+002
1.785973e+003,2.275669e+002
1.787901e+003,2.326256e+002
1.789829e+003,2.359252e+002
1.791758e+003,2.356995e+002
1.793686e+003,2.349741e+002
1.795615e+003,2.345399e+002
1.797543e+003,2.342574e+002
1.799472e+003,2.346618e+002
1.801400e+003,2.348759e+002
1.803329e+003,2.320030e+002
1.805257e+003,2.262263e+002
1.807186e+003,2.257033e+002
1.809114e+003,2.334512e+002
1.811043e+003,2.396582e+002
1.812971e+003,2.417745e+002
1.814900e+003,2.414109e+002
1.816828e+003,2.377528e+002
1.818756e+003,2.331837e+002
1.820685e+003,2.311651e+002
1.822613e+003,2.314025e+002
1.824542e+003,2.317769e+002
1.826470e+003,2.325343e+002
1.828399e+003,2.322759e+002
1.830327e+003,2.292632e+002
1.832256e+003,2.271653e+002
1.834184e+003,2.286440e+002
1.836113e+003,2.305298e+002
1.838041e+003,2.293883e+002
1.839970e+003,2.262122e+002
1.841898e+003,2.240391e+002
1.843827e+003,2.221387e+002
1.845755e+003,2.243652e+002
1.847684e+003,2.341754e+002
1.849612e+003,2.429936e+002
1.851541e+003,2.513436e+002
1.853469e+003,2.557641e+002
1.855397e+003,2.513025e+002
1.857326e+003,2.427198e+002
1.859254e+003,2.379415e+002
1.861183e+003,2.370172e+002
1.863111e+003,2.364951e+002
1.865040e+003,2.364498e+002
1.866968e+003,2.368534e+002
1.868897e+003,2.381068e+002
1.870825e+003,2.394521e+002
1.872754e+003,2.419014e+002
1.874682e+003,2.432887e+002
1.876611e+003,2.397606e+002
1.878539e+003,2.340556e+002
1.880468e+003,2.357421e+002
1.882396e+003,2.455764e+002
1.884324e+003,2.483950e+002
1.886253e+003,2.388428e+002
1.888181e+003,2.349972e+002
1.890110e+003,2.467346e+002
1.892038e+003,2.569927e+002
1.893967e+003,2.548507e+002
1.895895e+003,2.486589e+002
1.897824e+003,2.476186e+002
1.899752e+003,2.495769e+002
1.901681e+003,2.464647e+002
1.903609e+003,2.376152e+002
1.905538e+003,2.343141e+002
1.907466e+003,2.406430e+002
1.909395e+003,2.457281e+002
1.911323e+003,2.471643e+002
1.913251e+003,2.455302e+002
1.915180e+003,2.382115e+002
1.917108e+003,2.298640e+002
1.919037e+003,2.254734e+002
1.920965e+003,2.251870e+002
1.922894e+003,2.311748e+002
1.924822e+003,2.464731e+002
1.926751e+003,2.562957e+002
1.928679e+003,2.585586e+002
1.930608e+003,2.578085e+002
1.932536e+003,2.512899e+002
1.934465e+003,2.461579e+002
1.936393e+003,2.495024e+002
1.938322e+003,2.544469e+002
1.940250e+003,2.489089e+002
1.942178e+003,2.353580e+002
1.944107e+003,2.331927e+002
1.946035e+003,2.462375e+002
1.947964e+003,2.549810e+002
1.949892e+003,2.582279e+002
1.951821e+003,2.576303e+002
1.953749e+003,2.481186e+002
1.955678e+003,2.418441e+002
1.957606e+003,2.481469e+002
1.959535e+003,2.578253e+002
1.961463e+003,2.616884e+002
1.963392e+003,2.602877e+002
1.965320e+003,2.530086e+002
1.967249e+003,2.396612e+002
1.969177e+003,2.359758e+002
1.971105e+003,2.471722e+002
1.973034e+003,2.563776e+002
1.974962e+003,2.591532e+002
1.976891e+003,2.594132e+002
1.978819e+003,2.564503e+002
1.980748e+003,2.540474e+002
1.982676e+003,2.579203e+002
1.984605e+003,2.643287e+002
1.986533e+003,2.626478e+002
1.988462e+003,2.520109e+002
1.990390e+003,2.481870e+002
1.992319e+003,2.581524e+002
1.994247e+003,2.627310e+002
1.996176e+003,2.575909e+002
1.998104e+003,2.531954e+002
2.000032e+003,2.514087e+002
2.001961e+003,2.521774e+002
2.003889e+003,2.571447e+002
2.005818e+003,2.634901e+002
2.007746e+003,2.669940e+002
2.009675e+003,2.679784e+002
2.011603e+003,2.695579e+002
2.013532e+003,2.720758e+002
2.015460e+003,2.701104e+002
2.017389e+003,2.612080e+002
2.019317e+003,2.544862e+002
2.021246e+003,2.526851e+002
2.023174e+003,2.529732e+002
2.025103e+003,2.544657e+002
2.027031e+003,2.569689e+002
2.028959e+003,2.610531e+002
2.030888e+003,2.656184e+002
2.032816e+003,2.684709e+002
2.034745e+003,2.696903e+002
2.036673e+003,2.710621e+002
2.038602e+003,2.733813e+002
2.040530e+003,2.737094e+002
2.042459e+003,2.695642e+002
2.044387e+003,2.672910e+002
2.046316e+003,2.688537e+002
2.048244e+003,2.712471e+002
2.050173e+003,2.744756e+002
2.052101e+003,2.766053e+002
2.054030e+003,2.742962e+002
2.055958e+003,2.700365e+002
2.057886e+003,2.692592e+002
2.059815e+003,2.719086e+002
2.061743e+003,2.792126e+002
2.063672e+003,2.927135e+002
2.065600e+003,2.967813e+002
2.067529e+003,2.852999e+002
2.069457e+003,2.749834e+002
2.071386e+003,2.704383e+002
2.073314e+003,2.687726e+002
2.075243e+003,2.683621e+002
2.077171e+003,2.705188e+002
2.079100e+003,2.793445e+002
2.081028e+003,2.903014e+002
2.082957e+003,2.936604e+002
2.084885e+003,2.900359e+002
2.086813e+003,2.874973e+002
2.088742e+003,2.851230e+002
2.090670e+003,2.866651e+002
2.092599e+003,2.967440e+002
2.094527e+003,3.011478e+002
2.096456e+003,2.933796e+002
2.098384e+003,2.863430e+002
2.100313e+003,2.873990e+002
2.102241e+003,2.877942e+002
2.104170e+003,2.777040e+002
2.106098e+003,2.666432e+002
2.108027e+003,2.694208e+002
2.109955e+003,2.808846e+002
2.111884e+003,2.841538e+002
2.113812e+003,2.790818e+002
2.115740e+003,2.805859e+002
2.117669e+003,2.929389e+002
2.119597e+003,3.008068e+002
2.121526e+003,3.002115e+002
2.123454e+003,2.985271e+002
2.125383e+003,2.961423e+002
2.127311e+003,2.943063e+002
2.129240e+003,2.940022e+002
2.131168e+003,2.939694e+002
2.133097e+003,2.927524e+002
2.135025e+003,2.911488e+002
2.136954e+003,2.906714e+002
2.138882e+003,2.912158e+002
2.140811e+003,2.927069e+002
2.142739e+003,2.952090e+002
2.144667e+003,2.948807e+002
2.146596e+003,2.904997e+002
2.148524e+003,2.877206e+002
2.150453e+003,2.881573e+002
2.152381e+003,2.891317e+002
2.154310e+003,2.892542e+002
2.156238e+003,2.903486e+002
2.158167e+003,2.947494e+002
2.160095e+003,2.991668e+002
2.162024e+003,3.001482e+002
2.163952e+003,2.995161e+002
2.165881e+003,3.013148e+002
2.167809e+003,3.044984e+002
2.169738e+003,3.016053e+002
2.171666e+003,2.923665e+002
2.173594e+003,2.890489e+002
2.175523e+003,2.937335e+002
2.177451e+003,2.944033e+002
2.179380e+003,2.866543e+002
2.181308e+003,2.820166e+002
2.183237e+003,2.856172e+002
2.185165e+003,2.907651e+002
2.187094e+003,2.967945e+002
2.189022e+003,3.011240e+002
2.190951e+003,3.011830e+002
2.192879e+003,2.989948e+002
2.194808e+003,2.954817e+002
2.196736e+003,2.920598e+002
2.198665e+003,2.936220e+002
2.200593e+003,2.998866e+002
2.202521e+003,3.036014e+002
2.204450e+003,3.044744e+002
2.206378e+003,3.064641e+002
2.208307e+003,3.108654e+002
2.210235e+003,3.118358e+002
2.212164e+003,3.061227e+002
2.214092e+003,3.021506e+002
2.216021e+003,3.044760e+002
2.217949e+003,3.069176e+002
2.219878e+003,3.065638e+002
2.221806e+003,3.052144e+002
2.223735e+003,3.029842e+002
2.225663e+003,3.014439e+002
2.227592e+003,3.049049e+002
2.229520e+003,3.100680e+002
2.231448e+003,3.059782e+002
2.233377e+003,2.941464e+002
2.235305e+003,2.898469e+002
2.237234e+003,2.935342e+002
2.239162e+003,2.983868e+002
2.241091e+003,3.046141e+002
2.243019e+003,3.078457e+002
2.244948e+003,3.053972e+002
2.246876e+003,3.040973e+002
2.248805e+003,3.067316e+002
2.250733e+003,3.090212e+002
2.252662e+003,3.099841e+002
2.254590e+003,3.091155e+002
2.256519e+003,3.032868e+002
2.258447e+003,2.983321e+002
2.260375e+003,3.032273e+002
2.262304e+003,3.110885e+002
2.264232e+003,3.076177e+002
2.266161e+003,2.976987e+002
2.268089e+003,2.972899e+002
2.270018e+003,3.052346e+002
2.271946e+003,3.103511e+002
2.273875e+003,3.120281e+002
2.275803e+003,3.108465e+002
2.277732e+003,3.044878e+002
2.279660e+003,3.010211e+002
2.281589e+003,3.025114e+002
2.283517e+003,3.048811e+002
2.285446e+003,3.105698e+002
2.287374e+003,3.126936e+002
2.289302e+003,3.024390e+002
2.291231e+003,2.961946e+002
2.293159e+003,3.088076e+002
2.295088e+003,3.227776e+002
2.297016e+003,3.203102e+002
2.298945e+003,3.122499e+002
2.300873e+003,3.149041e+002
2.302802e+003,3.230435e+002
2.304730e+003,3.231905e+002
2.306659e+003,3.163545e+002
2.308587e+003,3.095808e+002
2.310516e+003,3.019279e+002
2.312444e+003,3.042429e+002
2.314373e+003,3.197390e+002
2.316301e+003,3.255367e+002
2.318229e+003,3.173798e+002
2.320158e+003,3.096545e+002
2.322086e+003,3.039660e+002
2.324015e+003,3.021822e+002
2.325943e+003,3.103416e+002
2.327872e+003,3.146516e+002
2.329800e+003,3.024830e+002
2.331729e+003,2.943200e+002
2.333657e+003,3.069775e+002
2.335586e+003,3.233946e+002
2.337514e+003,3.303771e+002
2.339443e+003,3.313194e+002
2.341371e+003,3.290692e+002
2.343300e+003,3.246837e+002
2.345228e+003,3.185999e+002
2.347156e+003,3.125569e+002
2.349085e+003,3.134021e+002
2.351013e+003,3.205091e+002
2.352942e+003,3.223357e+002
2.354870e+003,3.173327e+002
2.356799e+003,3.180374e+002
2.358727e+003,3.286366e+002
2.360656e+003,3.323120e+002
2.362584e+003,3.243548e+002
2.364513e+003,3.221898e+002
2.366441e+003,3.310175e+002
2.368370e+003,3.387058e+002
2.370298e+003,3.431118e+002
2.372227e+003,3.431773e+002
2.374155e+003,3.350841e+002
2.376083e+003,3.271224e+002
2.378012e+003,3.236625e+002
2.379940e+003,3.217697e+002
2.381869e+003,3.180951e+002
2.383797e+003,3.161848e+002
2.385726e+003,3.230490e+002
2.387654e+003,3.313686e+002
2.389583e+003,3.281642e+002
2.391511e+003,3.199818e+002
2.393440e+003,3.217400e+002
2.395368e+003,3.295526e+002
2.397297e+003,3.270699e+002
2.399225e+003,3.156497e+002
2.401154e+003,3.153524e+002
2.403082e+003,3.277316e+002
2.405010e+003,3.396819e+002
2.406939e+003,3.530881e+002
2.408867e+003,3.548365e+002
2.410796e+003,3.411535e+002
2.412724e+003,3.315221e+002
2.414653e+003,3.280807e+002
2.416581e+003,3.318376e+002
2.418510e+003,3.491304e+002
2.420438e+003,3.614389e+002
2.422367e+003,3.617075e+002
2.424295e+003,3.587504e+002
2.426224e+003,3.513859e+002
2.428152e+003,3.470834e+002
2.430081e+003,3.532232e+002
2.432009e+003,3.588249e+002
2.433938e+003,3.564341e+002
2.435866e+003,3.526831e+002
2.437794e+003,3.530373e+002
2.439723e+003,3.546871e+002
2.441651e+003,3.553401e+002
2.443580e+003,3.544851e+002
2.445508e+003,3.496321e+002
2.447437e+003,3.433350e+002
2.449365e+003,3.428317e+002
2.451294e+003,3.458518e+002
2.453222e+003,3.424413e+002
2.455151e+003,3.348845e+002
2.457079e+003,3.350546e+002
2.459008e+003,3.423542e+002
2.460936e+003,3.443124e+002
2.462865e+003,3.394622e+002
2.464793e+003,3.397495e+002
2.466721e+003,3.497448e+002
2.468650e+003,3.483364e+002
2.470578e+003,3.300849e+002
2.472507e+003,3.226451e+002
2.474435e+003,3.313367e+002
2.476364e+003,3.388867e+002
2.478292e+003,3.425677e+002
2.480221e+003,3.433982e+002
2.482149e+003,3.408074e+002
2.484078e+003,3.370405e+002
2.486006e+003,3.293914e+002
2.487935e+003,3.257715e+002
2.489863e+003,3.314571e+002
2.491792e+003,3.375158e+002
2.493720e+003,3.425415e+002
2.495648e+003,3.441283e+002
2.497577e+003,3.389965e+002
2.499505e+003,3.323896e+002
2.501434e+003,3.248413e+002
2.503362e+003,3.208190e+002
2.505291e+003,3.263713e+002
2.507219e+003,3.350866e+002
2.509148e+003,3.423594e+002
2.511076e+003,3.472859e+002
2.513005e+003,3.473361e+002
2.514933e+003,3.452826e+002
2.516862e+003,3.454899e+002
2.518790e+003,3.462089e+002
2.520719e+003,3.441442e+002
2.522647e+003,3.400437e+002
2.524575e+003,3.348481e+002
2.526504e+003,3.295442e+002
2.528432e+003,3.283005e+002
2.530361e+003,3.306814e+002
2.532289e+003,3.354507e+002
2.534218e+003,3.416811e+002
2.536146e+003,3.428982e+002
2.538075e+003,3.390375e+002
2.540003e+003,3.394929e+002
2.541932e+003,3.451502e+002
2.543860e+003,3.485492e+002
2.545789e+003,3.497588e+002
2.547717e+003,3.482529e+002
2.549646e+003,3.435612e+002
2.551574e+003,3.425328e+002
2.553502e+003,3.469378e+002
2.555431e+003,3.462534e+002
2.557359e+003,3.348392e+002
2.559288e+003,3.302885e+002
2.561216e+003,3.377712e+002
2.563145e+003,3.455470e+002
2.565073e+003,3.544525e+002
2.567002e+003,3.591640e+002
2.568930e+003,3.574103e+002
2.570859e+003,3.558230e+002
2.572787e+003,3.550744e+002
2.574716e+003,3.570947e+002
2.576644e+003,3.664854e+002
2.578573e+003,3.720004e+002
2.580501e+003,3.688213e+002
2.582429e+003,3.640696e+002
2.584358e+003,3.584588e+002
2.586287e+003,3.537092e+002
2.588215e+003,3.505569e+002
2.590144e+003,3.485219e+002
2.592072e+003,3.482672e+002
2.594000e+003,3.480878e+002
2.595929e+003,3.449448e+002
2.597857e+003,3.447170e+002
2.599786e+003,3.555677e+002
2.601714e+003,3.633236e+002
2.603643e+003,3.578960e+002
2.605571e+003,3.500775e+002
2.607500e+003,3.455335e+002
2.609428e+003,3.432121e+002
2.611357e+003,3.413981e+002
2.613285e+003,3.427411e+002
2.615214e+003,3.543525e+002
2.617142e+003,3.646003e+002
2.619071e+003,3.617641e+002
2.620999e+003,3.545564e+002
2.622927e+003,3.456140e+002
2.624856e+003,3.412315e+002
2.626784e+003,3.543133e+002
2.628713e+003,3.688718e+002
2.630641e+003,3.653976e+002
2.632570e+003,3.544058e+002
2.634498e+003,3.446845e+002
2.636427e+003,3.387281e+002
2.638355e+003,3.419523e+002
2.640284e+003,3.484410e+002
2.642212e+003,3.521023e+002
2.644141e+003,3.526407e+002
2.646069e+003,3.471640e+002
2.647998e+003,3.400888e+002
2.649926e+003,3.384644e+002
2.651854e+003,3.404008e+002
2.653783e+003,3.448094e+002
2.655711e+003,3.492214e+002
2.657640e+003,3.488056e+002
2.659568e+003,3.463080e+002
2.661497e+003,3.461458e+002
2.663425e+003,3.480931e+002
2.665354e+003,3.538637e+002
2.667282e+003,3.600328e+002
2.669211e+003,3.573260e+002
2.671139e+003,3.506090e+002
2.673068e+003,3.491845e+002
2.674996e+003,3.511801e+002
2.676925e+003,3.538257e+002
2.678853e+003,3.560960e+002
2.680781e+003,3.554073e+002
2.682710e+003,3.525492e+002
2.684638e+003,3.472305e+002
2.686567e+003,3.424520e+002
2.688495e+003,3.465710e+002
2.690424e+003,3.550180e+002
2.692352e+003,3.561600e+002
2.694281e+003,3.531584e+002
2.696209e+003,3.544705e+002
2.698138e+003,3.579518e+002
2.700066e+003,3.574032e+002
2.701995e+003,3.548717e+002
2.703923e+003,3.545247e+002
2.705852e+003,3.559084e+002
2.707780e+003,3.586922e+002
2.709708e+003,3.620472e+002
2.711637e+003,3.646491e+002
2.713565e+003,3.660487e+002
2.715494e+003,3.650768e+002
2.717422e+003,3.624143e+002
2.719351e+003,3.584641e+002
2.721279e+003,3.545772e+002
2.723208e+003,3.548932e+002
2.725136e+003,3.566371e+002
2.727065e+003,3.512583e+002
2.728993e+003,3.441676e+002
2.730922e+003,3.472606e+002
2.732850e+003,3.554669e+002
2.734779e+003,3.609171e+002
2.736707e+003,3.646044e+002
2.738635e+003,3.693270e+002
2.740564e+003,3.730992e+002
2.742492e+003,3.702053e+002
2.744421e+003,3.659994e+002
2.746349e+003,3.716453e+002
2.748278e+003,3.786136e+002
2.750206e+003,3.718142e+002
2.752135e+003,3.606037e+002
2.754063e+003,3.589514e+002
2.755992e+003,3.608167e+002
2.757920e+003,3.572480e+002
2.759849e+003,3.535912e+002
2.761777e+003,3.586623e+002
2.763706e+003,3.642033e+002
2.765634e+003,3.592010e+002
2.767563e+003,3.515670e+002
2.769491e+003,3.476821e+002
2.771419e+003,3.478115e+002
2.773348e+003,3.532638e+002
2.775276e+003,3.610664e+002
2.777205e+003,3.715345e+002
2.779133e+003,3.794689e+002
2.781062e+003,3.792015e+002
2.782990e+003,3.759176e+002
2.784919e+003,3.710441e+002
2.786847e+003,3.679436e+002
2.788776e+003,3.735329e+002
2.790704e+003,3.750268e+002
2.792633e+003,3.583257e+002
2.794561e+003,3.441530e+002
2.796490e+003,3.458350e+002
2.798418e+003,3.514642e+002
2.800346e+003,3.575162e+002
2.802275e+003,3.633440e+002
2.804203e+003,3.676960e+002
2.806132e+003,3.730128e+002
2.808060e+003,3.845082e+002
2.809989e+003,3.892186e+002
2.811917e+003,3.787423e+002
2.813846e+003,3.712116e+002
2.815774e+003,3.736448e+002
2.817703e+003,3.757703e+002
2.819631e+003,3.742688e+002
2.821560e+003,3.725031e+002
2.823488e+003,3.698768e+002
2.825417e+003,3.703118e+002
2.827345e+003,3.748074e+002
2.829273e+003,3.810696e+002
2.831202e+003,3.897213e+002
2.833130e+003,3.968146e+002
2.835059e+003,4.033132e+002
2.836987e+003,4.026870e+002
2.838916e+003,3.926355e+002
2.840844e+003,3.903950e+002
2.842773e+003,3.980296e+002
2.844701e+003,4.050668e+002
2.846630e+003,4.096682e+002
2.848558e+003,4.234095e+002
2.850487e+003,4.473719e+002
2.852415e+003,4.561340e+002
2.854344e+003,4.510745e+002
2.856272e+003,4.474720e+002
2.858200e+003,4.457209e+002
2.860129e+003,4.445650e+002
2.862057e+003,4.437365e+002
2.863986e+003,4.433974e+002
2.865914e+003,4.416923e+002
2.867843e+003,4.297133e+002
2.869771e+003,4.130356e+002
2.871700e+003,4.034552e+002
2.873628e+003,3.989825e+002
2.875557e+003,3.972312e+002
2.877485e+003,3.966397e+002
2.879414e+003,3.942604e+002
2.881342e+003,3.923369e+002
2.883271e+003,3.934085e+002
2.885199e+003,3.962959e+002
2.887127e+003,4.023314e+002
2.889056e+003,4.063969e+002
2.890984e+003,3.957041e+002
2.892913e+003,3.938389e+002
2.894841e+003,4.254974e+002
2.896770e+003,4.554663e+002
2.898698e+003,4.587644e+002
2.900627e+003,4.652817e+002
2.902555e+003,4.908652e+002
2.904484e+003,5.109054e+002
2.906412e+003,5.087866e+002
2.908341e+003,5.223785e+002
2.910269e+003,5.679476e+002
2.912198e+003,6.217097e+002
2.914126e+003,6.826198e+002
2.916054e+003,7.465593e+002
2.917983e+003,8.148824e+002
2.919911e+003,8.750278e+002
2.921840e+003,9.327934e+002
2.923768e+003,9.446300e+002
2.925697e+003,9.071984e+002
2.927625e+003,8.489707e+002
2.929554e+003,7.743004e+002
2.931482e+003,7.257482e+002
2.933411e+003,7.026472e+002
2.935339e+003,6.921290e+002
2.937268e+003,6.913505e+002
2.939196e+003,6.882141e+002
2.941125e+003,6.854584e+002
2.943053e+003,6.949323e+002
2.944981e+003,7.049423e+002
2.946910e+003,6.954849e+002
2.948838e+003,6.757951e+002
2.950767e+003,6.523237e+002
2.952695e+003,6.316514e+002
2.954624e+003,6.139454e+002
2.956552e+003,6.082953e+002
2.958481e+003,6.284222e+002
2.960409e+003,6.521160e+002
2.962338e+003,6.772841e+002
2.964266e+003,6.855456e+002
2.966195e+003,6.660703e+002
2.968123e+003,6.390701e+002
2.970052e+003,6.028309e+002
2.971980e+003,5.763166e+002
2.973908e+003,5.622947e+002
2.975837e+003,5.570731e+002
2.977765e+003,5.621757e+002
2.979694e+003,5.606942e+002
2.981622e+003,5.500766e+002
2.983551e+003,5.326851e+002
2.985479e+003,5.083704e+002
2.987408e+003,4.876450e+002
2.989336e+003,4.714023e+002
2.991265e+003,4.641857e+002
2.993193e+003,4.637818e+002
2.995122e+003,4.641563e+002
2.997050e+003,4.654483e+002
2.998979e+003,4.674819e+002
3.000907e+003,4.709915e+002
3.002835e+003,4.776217e+002
3.004764e+003,4.850132e+002
3.006692e+003,4.931966e+002
3.008621e+003,4.974676e+002
3.010549e+003,4.929620e+002
3.012478e+003,4.870126e+002
3.014406e+003,4.795497e+002
3.016335e+003,4.779477e+002
3.018263e+003,4.840784e+002
3.020192e+003,4.991911e+002
3.022120e+003,5.257040e+002
3.024049e+003,5.516478e+002
3.025977e+003,5.743307e+002
3.027906e+003,5.979313e+002
3.029834e+003,6.217372e+002
3.031762e+003,6.575414e+002
3.033691e+003,7.019922e+002
3.035619e+003,7.179219e+002
3.037548e+003,7.126642e+002
3.039476e+003,7.208176e+002
3.041405e+003,7.367491e+002
3.043333e+003,7.344010e+002
3.045262e+003,7.418388e+002
3.047190e+003,7.765878e+002
3.049119e+003,8.641021e+002
3.051047e+003,1.056818e+003
3.052976e+003,1.276034e+003
3.054904e+003,1.510162e+003
3.056833e+003,1.679821e+003
3.058761e+003,1.729551e+003
3.060689e+003,1.742765e+003
3.062618e+003,1.744089e+003
3.064546e+003,1.712341e+003
3.066475e+003,1.650453e+003
3.068403e+003,1.519515e+003
3.070332e+003,1.294304e+003
3.072260e+003,1.091796e+003
3.074189e+003,9.118172e+002
3.076117e+003,7.702900e+002
3.078046e+003,6.661371e+002
3.079974e+003,5.952380e+002
3.081903e+003,5.499296e+002
3.083831e+003,5.211459e+002
3.085760e+003,5.007054e+002
3.087688e+003,4.768511e+002
3.089616e+003,4.569270e+002
3.091545e+003,4.486734e+002
3.093473e+003,4.440511e+002
3.095402e+003,4.403685e+002
3.097330e+003,4.356621e+002
3.099259e+003,4.286158e+002
3.101187e+003,4.221094e+002
3.103116e+003,4.176996e+002
3.105044e+003,4.107748e+002
3.106973e+003,4.003758e+002
3.108901e+003,4.010662e+002
3.110830e+003,4.125373e+002
3.112758e+003,4.106685e+002
3.114687e+003,3.988080e+002
3.116615e+003,3.932075e+002
3.118543e+003,3.922423e+002
3.120472e+003,3.965294e+002
3.122400e+003,3.984769e+002
3.124329e+003,3.840623e+002
3.126257e+003,3.703724e+002
3.128186e+003,3.722650e+002
3.130114e+003,3.751598e+002
3.132043e+003,3.710320e+002
3.133971e+003,3.698455e+002
3.135900e+003,3.766200e+002
3.137828e+003,3.793374e+002
3.139757e+003,3.759806e+002
3.141685e+003,3.763334e+002
3.143614e+003,3.814411e+002
3.145542e+003,3.821633e+002
3.147470e+003,3.794666e+002
3.149399e+003,3.808474e+002
3.151327e+003,3.837475e+002
3.153256e+003,3.821224e+002
3.155184e+003,3.796873e+002
3.157113e+003,3.813733e+002
3.159041e+003,3.838643e+002
3.160970e+003,3.856337e+002
3.162898e+003,3.857842e+002
3.164827e+003,3.810198e+002
3.166755e+003,3.810007e+002
3.168684e+003,3.901666e+002
3.170612e+003,3.899680e+002
3.172541e+003,3.762524e+002
3.174469e+003,3.667376e+002
3.176397e+003,3.617893e+002
3.178326e+003,3.508669e+002
3.180254e+003,3.384151e+002
3.182183e+003,3.373223e+002
3.184111e+003,3.437175e+002
3.186040e+003,3.566347e+002
3.187968e+003,3.671764e+002
3.189897e+003,3.693065e+002
3.191825e+003,3.650602e+002
3.193754e+003,3.463635e+002
3.195682e+003,3.400501e+002
3.197611e+003,3.557801e+002
3.199539e+003,3.668892e+002
3.201468e+003,3.694369e+002
3.203396e+003,3.648074e+002
3.205324e+003,3.533275e+002
3.207253e+003,3.498214e+002
3.209181e+003,3.514091e+002
3.211110e+003,3.510234e+002
3.213038e+003,3.478796e+002
3.214967e+003,3.372820e+002
3.216895e+003,3.280907e+002
3.218824e+003,3.286544e+002
3.220752e+003,3.300621e+002
3.222681e+003,3.262951e+002
3.224609e+003,3.257937e+002
3.226538e+003,3.305850e+002
3.228466e+003,3.361098e+002
3.230395e+003,3.422386e+002
3.232323e+003,3.376885e+002
3.234251e+003,3.244689e+002
3.236180e+003,3.266325e+002
3.238108e+003,3.358395e+002
3.240037e+003,3.351878e+002
3.241965e+003,3.303171e+002
3.243894e+003,3.254637e+002
3.245822e+003,3.227682e+002
3.247751e+003,3.242914e+002
3.249679e+003,3.261200e+002
3.251608e+003,3.285125e+002
3.253536e+003,3.260495e+002
3.255465e+003,3.174498e+002
3.257393e+003,3.154557e+002
3.259322e+003,3.204995e+002
3.261250e+003,3.221287e+002
3.263178e+003,3.223596e+002
3.265107e+003,3.310653e+002
3.267035e+003,3.383442e+002
3.268964e+003,3.278066e+002
3.270892e+003,3.172436e+002
3.272821e+003,3.199980e+002
3.274749e+003,3.237772e+002
3.276678e+003,3.263557e+002
3.278606e+003,3.245543e+002
3.280535e+003,3.166198e+002
3.282463e+003,3.112562e+002
3.284392e+003,3.092118e+002
3.286320e+003,3.170832e+002
3.288249e+003,3.288935e+002
3.290177e+003,3.294594e+002
3.292105e+003,3.239213e+002
3.294034e+003,3.129846e+002
3.295962e+003,3.071907e+002
3.297891e+003,3.202388e+002
3.299819e+003,3.256652e+002
3.301748e+003,3.151266e+002
3.303676e+003,3.087820e+002
3.305605e+003,3.104480e+002
3.307533e+003,3.144584e+002
3.309462e+003,3.192924e+002
3.311390e+003,3.114404e+002
3.313319e+003,3.008700e+002
3.315247e+003,3.076306e+002
3.317176e+003,3.174683e+002
3.319104e+003,3.191743e+002
3.321032e+003,3.174081e+002
3.322961e+003,3.100965e+002
3.324889e+003,3.092619e+002
3.326818e+003,3.180107e+002
3.328746e+003,3.212781e+002
3.330675e+003,3.177038e+002
3.332603e+003,3.045820e+002
3.334532e+003,2.890712e+002
3.336460e+003,2.965464e+002
3.338389e+003,3.098398e+002
3.340317e+003,3.123427e+002
3.342246e+003,3.105401e+002
3.344174e+003,3.044964e+002
3.346103e+003,3.043403e+002
3.348031e+003,3.149976e+002
3.349959e+003,3.196284e+002
3.351888e+003,3.167862e+002
3.353816e+003,3.118836e+002
3.355745e+003,3.071798e+002
3.357673e+003,3.121244e+002
3.359602e+003,3.180174e+002
3.361530e+003,3.111569e+002
3.363459e+003,3.030740e+002
3.365387e+003,2.992930e+002
3.367316e+003,2.982179e+002
3.369244e+003,3.006789e+002
3.371173e+003,3.008247e+002
3.373101e+003,2.985020e+002
3.375030e+003,3.005302e+002
3.376958e+003,3.050195e+002
3.378886e+003,3.034887e+002
3.380815e+003,3.013513e+002
3.382743e+003,3.073345e+002
3.384672e+003,3.113641e+002
3.386600e+003,3.023533e+002
3.388529e+003,3.022000e+002
3.390457e+003,3.191004e+002
3.392386e+003,3.201356e+002
3.394314e+003,3.026729e+002
3.396243e+003,3.010371e+002
3.398171e+003,3.077980e+002
3.400100e+003,3.036289e+002
3.402028e+003,2.976167e+002
3.403957e+003,2.987427e+002
3.405885e+003,3.041518e+002
3.407813e+003,3.169978e+002
3.409742e+003,3.224863e+002
3.411670e+003,3.166126e+002
3.413599e+003,3.143271e+002
3.415527e+003,3.156013e+002
3.417456e+003,3.178064e+002
3.419384e+003,3.187651e+002
3.421313e+003,3.133423e+002
3.423241e+003,3.060707e+002
3.425170e+003,2.955756e+002
3.427098e+003,2.943456e+002
3.429027e+003,3.106796e+002
3.430955e+003,3.137260e+002
3.432884e+003,2.995810e+002
3.434812e+003,3.033121e+002
3.436740e+003,3.182684e+002
3.438669e+003,3.186539e+002
3.440597e+003,3.137119e+002
3.442526e+003,3.112483e+002
3.444454e+003,3.114317e+002
3.446383e+003,3.163306e+002
3.448311e+003,3.162046e+002
3.450240e+003,3.061042e+002
3.452168e+003,3.067451e+002
3.454097e+003,3.150251e+002
3.456025e+003,3.046792e+002
3.457954e+003,2.907480e+002
3.459882e+003,2.997619e+002
3.461811e+003,3.101121e+002
3.463739e+003,3.089224e+002
3.465667e+003,3.071209e+002
3.467596e+003,3.089669e+002
3.469524e+003,3.077070e+002
3.471453e+003,3.034432e+002
3.473381e+003,2.961498e+002
3.475310e+003,2.899823e+002
3.477238e+003,2.968481e+002
3.479167e+003,3.043804e+002
3.481095e+003,3.017502e+002
3.483024e+003,3.006644e+002
3.484952e+003,3.064632e+002
3.486881e+003,3.041953e+002
3.488809e+003,2.940799e+002
3.490738e+003,3.011008e+002
3.492666e+003,3.149171e+002
3.494594e+003,3.037490e+002
3.496523e+003,2.930381e+002
3.498451e+003,3.120413e+002
3.500380e+003,3.199343e+002
3.502308e+003,3.029730e+002
3.504237e+003,2.904006e+002
3.506165e+003,2.858610e+002
3.508094e+003,2.922563e+002
3.510022e+003,3.038761e+002
3.511951e+003,3.089139e+002
3.513879e+003,3.084938e+002
3.515808e+003,3.001414e+002
3.517736e+003,2.923306e+002
3.519665e+003,2.858948e+002
3.521593e+003,2.901487e+002
3.523521e+003,3.055285e+002
3.525450e+003,3.087062e+002
3.527378e+003,3.047304e+002
3.529307e+003,3.024102e+002
3.531235e+003,3.011207e+002
3.533164e+003,3.007112e+002
3.535092e+003,3.002744e+002
3.537021e+003,2.985102e+002
3.538949e+003,3.031706e+002
3.540878e+003,3.126713e+002
3.542806e+003,3.067388e+002
3.544735e+003,2.960187e+002
3.546663e+003,2.976615e+002
3.548592e+003,3.031842e+002
3.550520e+003,3.116367e+002
3.552448e+003,3.098517e+002
3.554377e+003,2.897820e+002
3.556305e+003,2.932743e+002
3.558234e+003,3.125130e+002
3.560162e+003,3.075807e+002
3.562091e+003,2.938692e+002
3.564019e+003,2.867725e+002
3.565948e+003,2.874794e+002
3.567876e+003,3.057216e+002
3.569805e+003,3.089145e+002
3.571733e+003,2.950499e+002
3.573662e+003,2.896269e+002
3.575590e+003,2.913067e+002
3.577519e+003,2.974291e+002
3.579447e+003,3.031021e+002
3.581376e+003,3.044342e+002
3.583304e+003,3.039203e+002
3.585233e+003,3.017287e+002
3.587161e+003,3.007156e+002
3.589090e+003,3.003521e+002
3.591018e+003,2.924755e+002
3.592947e+003,2.855809e+002
3.594875e+003,2.965662e+002
3.596803e+003,3.076465e+002
3.598732e+003,3.113810e+002
3.600660e+003,3.058752e+002
3.602589e+003,2.909548e+002
3.604517e+003,2.947085e+002
3.606446e+003,3.033390e+002
3.608374e+003,2.543347e+002
3.610303e+003,2.118080e+002
3.612231e+003,2.406149e+002
3.614160e+003,2.696797e+002
3.616088e+003,2.833111e+002
3.618017e+003,2.857998e+002
3.619945e+003,2.800474e+002
3.621874e+003,2.812348e+002
3.623802e+003,2.859326e+002
3.625730e+003,2.908452e+002
3.627659e+003,2.947729e+002
3.629587e+003,2.970835e+002
3.631516e+003,2.984249e+002
3.633444e+003,2.988274e+002
3.635373e+003,2.999104e+002
3.637301e+003,3.010229e+002
3.639230e+003,3.008453e+002
3.641158e+003,3.002368e+002
3.643087e+003,3.034377e+002
3.645015e+003,2.951508e+002
3.646944e+003,2.718614e+002
3.648872e+003,2.765433e+002
3.650801e+003,2.987433e+002
3.652729e+003,2.989189e+002
3.654657e+003,2.949569e+002
3.656586e+003,3.022356e+002
3.658514e+003,3.082949e+002
3.660443e+003,3.109000e+002
3.662371e+003,3.058233e+002
3.664300e+003,2.956193e+002
3.666228e+003,2.910855e+002
3.668157e+003,2.908782e+002
3.670085e+003,3.001292e+002
3.672014e+003,2.976744e+002
3.673942e+003,2.739680e+002
3.675871e+003,2.728443e+002
3.677799e+003,2.929051e+002
3.679728e+003,2.952024e+002
3.681656e+003,2.903170e+002
3.683584e+003,2.895486e+002
3.685513e+003,2.900562e+002
3.687441e+003,2.906120e+002
3.689370e+003,2.946822e+002
3.691298e+003,3.014402e+002
3.693227e+003,2.947235e+002
3.695155e+003,2.843051e+002
3.697084e+003,2.813204e+002
3.699012e+003,2.843365e+002
3.700941e+003,2.947279e+002
3.702869e+003,3.010804e+002
3.704798e+003,3.018784e+002
3.706726e+003,2.928223e+002
3.708655e+003,2.818861e+002
3.710583e+003,2.797722e+002
3.712511e+003,2.812168e+002
3.714440e+003,2.852228e+002
3.716368e+003,2.857072e+002
3.718297e+003,2.826050e+002
3.720225e+003,2.857651e+002
3.722154e+003,2.912459e+002
3.724082e+003,2.946611e+002
3.726011e+003,2.956629e+002
3.727939e+003,2.940074e+002
3.729868e+003,2.900582e+002
3.731796e+003,2.842698e+002
3.733725e+003,2.786489e+002
3.735653e+003,2.774084e+002
3.737582e+003,2.894320e+002
3.739510e+003,2.999050e+002
3.741438e+003,3.043492e+002
3.743367e+003,2.990241e+002
3.745295e+003,2.859543e+002
3.747224e+003,2.819229e+002
3.749152e+003,2.810934e+002
3.751081e+003,2.752823e+002
3.753009e+003,2.731480e+002
3.754938e+003,2.777205e+002
3.756866e+003,2.848161e+002
3.758795e+003,2.924384e+002
3.760723e+003,2.919322e+002
3.762652e+003,2.899724e+002
3.764580e+003,2.952178e+002
3.766509e+003,2.945702e+002
3.768437e+003,2.838990e+002
3.770365e+003,2.808151e+002
3.772294e+003,2.840274e+002
3.774222e+003,2.895262e+002
3.776151e+003,2.936464e+002
3.778079e+003,2.947239e+002
3.780008e+003,2.906095e+002
3.781936e+003,2.810807e+002
3.783865e+003,2.777935e+002
3.785793e+003,2.778453e+002
3.787722e+003,2.767027e+002
3.789650e+003,2.720410e+002
3.791579e+003,2.562914e+002
3.793507e+003,2.634287e+002
3.795436e+003,2.920255e+002
3.797364e+003,2.860619e+002
3.799292e+003,2.702947e+002
3.801221e+003,2.813300e+002
3.803149e+003,2.884898e+002
3.805078e+003,2.780865e+002
3.807006e+003,2.804328e+002
3.808935e+003,2.915256e+002
3.810863e+003,2.873867e+002
3.812792e+003,2.807579e+002
3.814720e+003,2.845497e+002
3.816649e+003,2.839860e+002
3.818577e+003,2.743086e+002
3.820506e+003,2.735784e+002
3.822434e+003,2.772654e+002
3.824363e+003,2.733892e+002
3.826291e+003,2.744277e+002
3.828219e+003,2.896744e+002
3.830148e+003,2.955024e+002
3.832076e+003,2.899821e+002
3.834005e+003,2.826120e+002
3.835933e+003,2.771300e+002
3.837862e+003,2.798253e+002
3.839790e+003,2.807603e+002
3.841719e+003,2.773026e+002
3.843647e+003,2.752365e+002
3.845576e+003,2.747209e+002
3.847504e+003,2.755729e+002
3.849433e+003,2.772505e+002
3.851361e+003,2.824358e+002
3.853290e+003,2.791636e+002
3.855218e+003,2.676907e+002
3.857146e+003,2.619503e+002
3.859075e+003,2.624743e+002
3.861003e+003,2.736893e+002
3.862932e+003,2.811719e+002
3.864860e+003,2.786512e+002
3.866789e+003,2.779236e+002
3.868717e+003,2.782352e+002
3.870646e+003,2.753441e+002
3.872574e+003,2.730395e+002
3.874503e+003,2.732389e+002
3.876431e+003,2.773851e+002
3.878360e+003,2.845559e+002
3.880288e+003,2.695205e+002
3.882217e+003,2.523526e+002
3.884145e+003,2.634716e+002
3.886073e+003,2.709631e+002
3.888002e+003,2.647351e+002
3.889930e+003,2.655085e+002
3.891859e+003,2.708640e+002
3.893787e+003,2.734221e+002
3.895716e+003,2.756459e+002
3.897644e+003,2.790002e+002
3.899573e+003,2.818497e+002
3.901501e+003,2.834588e+002
3.903430e+003,2.784194e+002
3.905358e+003,2.718825e+002
3.907287e+003,2.674074e+002
3.909215e+003,2.668375e+002
3.911144e+003,2.703486e+002
3.913072e+003,2.775371e+002
3.915000e+003,2.838096e+002
3.916929e+003,2.786416e+002
3.918857e+003,2.754656e+002
3.920786e+003,2.817576e+002
3.922714e+003,2.816542e+002
3.924643e+003,2.763732e+002
3.926571e+003,2.700950e+002
3.928500e+003,2.657986e+002
3.930428e+003,2.661107e+002
3.932357e+003,2.648721e+002
3.934285e+003,2.619341e+002
3.936214e+003,2.604842e+002
3.938142e+003,2.613896e+002
3.940071e+003,2.657311e+002
3.941999e+003,2.739690e+002
3.943927e+003,2.872859e+002
3.945856e+003,2.795514e+002
3.947784e+003,2.639598e+002
3.949713e+003,2.596831e+002
3.951641e+003,2.570589e+002
3.953570e+003,2.527386e+002
3.955498e+003,2.595664e+002
3.957427e+003,2.714850e+002
3.959355e+003,2.739150e+002
3.961284e+003,2.691062e+002
3.963212e+003,2.531207e+002
3.965141e+003,2.469428e+002
3.967069e+003,2.497839e+002
3.968998e+003,2.510605e+002
3.970926e+003,2.574523e+002
3.972854e+003,2.784695e+002
3.974783e+003,2.883644e+002
3.976711e+003,2.859242e+002
3.978640e+003,2.778303e+002
3.980568e+003,2.695510e+002
3.982497e+003,2.651302e+002
3.984425e+003,2.652878e+002
3.986354e+003,2.703289e+002
3.988282e+003,2.790041e+002
3.990211e+003,2.844238e+002
3.992139e+003,2.735235e+002
3.994068e+003,2.668720e+002
3.995996e+003,2.690240e+002
3.997925e+003,2.744499e+002
3.999853e+003,2.769283e+002
4.001781e+003,2.632702e+002
4.003710e+003,2.517639e+002
4.005638e+003,2.477097e+002
4.007567e+003,2.512281e+002
4.009495e+003,2.584493e+002
4.011424e+003,2.590373e+002
4.013352e+003,2.649282e+002
4.015281e+003,2.915923e+002
4.017209e+003,2.831762e+002
4.019138e+003,2.578232e+002
4.021066e+003,2.663649e+002
4.022995e+003,2.737820e+002
4.024923e+003,2.637589e+002
4.026852e+003,2.546958e+002
4.028780e+003,2.490721e+002
4.030708e+003,2.507973e+002
4.032637e+003,2.548857e+002
4.034565e+003,2.591626e+002
4.036494e+003,2.640742e+002
4.038422e+003,2.675877e+002
4.040351e+003,2.576599e+002
4.042279e+003,2.488586e+002
4.044208e+003,2.532581e+002
4.046136e+003,2.523322e+002
4.048065e+003,2.479750e+002
4.049993e+003,2.541144e+002
4.051922e+003,2.594029e+002
4.053850e+003,2.558621e+002
4.055779e+003,2.568008e+002
4.057707e+003,2.610611e+002
4.059635e+003,2.521910e+002
4.061564e+003,2.462559e+002
4.063492e+003,2.560691e+002
4.065421e+003,2.590175e+002
4.067349e+003,2.551777e+002
4.069278e+003,2.618209e+002
4.071206e+003,2.661400e+002
4.073135e+003,2.549294e+002
4.075063e+003,2.494692e+002
4.076992e+003,2.509707e+002
4.078920e+003,2.608029e+002
4.080849e+003,2.661955e+002
4.082777e+003,2.560292e+002
4.084706e+003,2.516019e+002
4.086634e+003,2.523033e+002
4.088563e+003,2.482669e+002
4.090491e+003,2.443547e+002
4.092419e+003,2.433096e+002
4.094348e+003,2.431463e+002
4.096276e+003,2.443991e+002
4.098205e+003,2.537287e+002
4.100133e+003,2.597494e+002
4.102062e+003,2.556781e+002
4.103990e+003,2.453908e+002
4.105919e+003,2.343368e+002
4.107847e+003,2.420328e+002
4.109776e+003,2.506570e+002
4.111704e+003,2.482022e+002
4.113633e+003,2.559475e+002
4.115561e+003,2.664156e+002
4.117490e+003,2.600928e+002
4.119418e+003,2.500808e+002
4.121347e+003,2.409767e+002
4.123275e+003,2.381331e+002
4.125204e+003,2.384020e+002
4.127132e+003,2.341467e+002
4.129061e+003,2.319226e+002
4.130989e+003,2.333217e+002
4.132917e+003,2.463021e+002
4.134846e+003,2.618671e+002
4.136774e+003,2.676606e+002
4.138703e+003,2.660594e+002
4.140631e+003,2.576623e+002
4.142560e+003,2.459371e+002
4.144488e+003,2.359339e+002
4.146417e+003,2.340637e+002
4.148345e+003,2.355734e+002
4.150273e+003,2.395680e+002
4.152202e+003,2.428007e+002
4.154130e+003,2.436355e+002
4.156059e+003,2.403702e+002
4.157987e+003,2.312930e+002
4.159916e+003,2.200279e+002
4.161844e+003,2.328826e+002
4.163773e+003,2.434378e+002
4.165701e+003,2.283382e+002
4.167630e+003,2.281090e+002
4.169558e+003,2.373439e+002
4.171487e+003,2.302533e+002
4.173415e+003,2.285856e+002
4.175344e+003,2.421865e+002
4.177272e+003,2.520455e+002
4.179201e+003,2.559772e+002
4.181129e+003,2.506269e+002
4.183058e+003,2.432253e+002
4.184986e+003,2.360004e+002
4.186915e+003,2.406595e+002
4.188843e+003,2.473229e+002
4.190771e+003,2.419546e+002
4.192700e+003,2.431376e+002
4.194628e+003,2.522312e+002
4.196557e+003,2.409239e+002
4.198485e+003,2.293520e+002
4.200414e+003,2.338278e+002
4.202342e+003,2.373110e+002
4.204271e+003,2.379158e+002
4.206199e+003,2.335255e+002
4.208127e+003,2.318970e+002
4.210056e+003,2.387270e+002
4.211984e+003,2.331096e+002
4.213913e+003,2.246424e+002
4.215841e+003,2.398162e+002
4.217770e+003,2.489812e+002
4.219698e+003,2.428525e+002
4.221627e+003,2.452769e+002
4.223555e+003,2.485418e+002
4.225484e+003,2.416353e+002
4.227412e+003,2.384952e+002
4.229341e+003,2.405062e+002
4.231269e+003,2.445337e+002
4.233198e+003,2.490380e+002
4.235126e+003,2.573042e+002
4.237055e+003,2.473668e+002
4.238983e+003,2.283761e+002
4.240912e+003,2.236993e+002
4.242840e+003,2.234988e+002
4.244769e+003,2.247705e+002
4.246697e+003,2.303887e+002
4.248625e+003,2.342944e+002
4.250554e+003,2.318084e+002
