1.159199e+002,6.071996e+002
1.178484e+002,6.574719e+002
1.197769e+002,6.982512e+002
1.217053e+002,7.290176e+002
1.236338e+002,7.395715e+002
1.255623e+002,7.154095e+002
1.274907e+002,6.794006e+002
1.294192e+002,6.515208e+002
1.313477e+002,6.332853e+002
1.332761e+002,6.223802e+002
1.352046e+002,6.198885e+002
1.371331e+002,6.271758e+002
1.390615e+002,6.342995e+002
1.409900e+002,6.335096e+002
1.429185e+002,6.311427e+002
1.448469e+002,6.411820e+002
1.467754e+002,6.769828e+002
1.487039e+002,7.115884e+002
1.506323e+002,7.344870e+002
1.525608e+002,7.480458e+002
1.544893e+002,7.490090e+002
1.564177e+002,7.414349e+002
1.583462e+002,7.258314e+002
1.602747e+002,6.950242e+002
1.622031e+002,6.379172e+002
1.641316e+002,5.808132e+002
1.660601e+002,5.366483e+002
1.679885e+002,5.060221e+002
1.699170e+002,4.843963e+002
1.718455e+002,4.725072e+002
1.737739e+002,4.701868e+002
1.757024e+002,4.644720e+002
1.776309e+002,4.499870e+002
1.795593e+002,4.347802e+002
1.814878e+002,4.256152e+002
1.834163e+002,4.311194e+002
1.853447e+002,4.337713e+002
1.872732e+002,4.295223e+002
1.892017e+002,4.192137e+002
1.911301e+002,4.094512e+002
1.930586e+002,4.010299e+002
1.949871e+002,3.938853e+002
1.969155e+002,3.882286e+002
1.988440e+002,3.841011e+002
2.007725e+002,3.811925e+002
2.027009e+002,3.800595e+002
2.046294e+002,3.808276e+002
2.065579e+002,3.802495e+002
2.084864e+002,3.758003e+002
2.104148e+002,3.695793e+002
2.123433e+002,3.663646e+002
2.142718e+002,3.660796e+002
2.162002e+002,3.681247e+002
2.181287e+002,3.726877e+002
2.200572e+002,3.818569e+002
2.219856e+002,3.875461e+002
2.239141e+002,3.878397e+002
2.258426e+002,3.842596e+002
2.277710e+002,3.811391e+002
2.296995e+002,3.779597e+002
2.316280e+002,3.763494e+002
2.335564e+002,3.771766e+002
2.354849e+002,3.856005e+002
2.374134e+002,3.897037e+002
2.393418e+002,3.850188e+002
2.412703e+002,3.758500e+002
2.431988e+002,3.716321e+002
2.451272e+002,3.782486e+002
2.470557e+002,3.859616e+002
2.489842e+002,3.895978e+002
2.509126e+002,3.858593e+002
2.528411e+002,3.846427e+002
2.547696e+002,3.904919e+002
2.566980e+002,4.003262e+002
2.586265e+002,4.058245e+002
2.605550e+002,4.020439e+002
2.624834e+002,3.973462e+002
2.644119e+002,3.963462e+002
2.663404e+002,3.997984e+002
2.682688e+002,4.033539e+002
2.701973e+002,4.060769e+002
2.721258e+002,4.080214e+002
2.740542e+002,4.094180e+002
2.759827e+002,4.094349e+002
2.779112e+002,4.091744e+002
2.798396e+002,4.092422e+002
2.817681e+002,4.097065e+002
2.836966e+002,4.096587e+002
2.856250e+002,4.089448e+002
2.875535e+002,4.077393e+002
2.894820e+002,4.064012e+002
2.914104e+002,4.047946e+002
2.933389e+002,4.037225e+002
2.952674e+002,4.034821e+002
2.971958e+002,4.039297e+002
2.991243e+002,4.062702e+002
3.010528e+002,4.128805e+002
3.029813e+002,4.215979e+002
3.049097e+002,4.255983e+002
3.068382e+002,4.211263e+002
3.087667e+002,4.156688e+002
3.106951e+002,4.118333e+002
3.126236e+002,4.090065e+002
3.145521e+002,4.095932e+002
3.164805e+002,4.158790e+002
3.184090e+002,4.253436e+002
3.203375e+002,4.326970e+002
3.222659e+002,4.373345e+002
3.241944e+002,4.411213e+002
3.261229e+002,4.446766e+002
3.280513e+002,4.475108e+002
3.299798e+002,4.515986e+002
3.319083e+002,4.577397e+002
3.338367e+002,4.646569e+002
3.357652e+002,4.706059e+002
3.376937e+002,4.750014e+002
3.396221e+002,4.789852e+002
3.415506e+002,4.842096e+002
3.434791e+002,4.918160e+002
3.454075e+002,4.932694e+002
3.473360e+002,4.829116e+002
3.492645e+002,4.698803e+002
3.511929e+002,4.621652e+002
3.531214e+002,4.626174e+002
3.550499e+002,4.633305e+002
3.569783e+002,4.624737e+002
3.589068e+002,4.600204e+002
3.608353e+002,4.573438e+002
3.627637e+002,4.529768e+002
3.646922e+002,4.496978e+002
3.666207e+002,4.490433e+002
3.685491e+002,4.522641e+002
3.704776e+002,4.558675e+002
3.724061e+002,4.583870e+002
3.743345e+002,4.608950e+002
3.762630e+002,4.668710e+002
3.781915e+002,4.808518e+002
3.801199e+002,4.929193e+002
3.820484e+002,4.980561e+002
3.839769e+002,4.918603e+002
3.859053e+002,4.887070e+002
3.878338e+002,4.904321e+002
3.897623e+002,4.950089e+002
3.916907e+002,4.988942e+002
3.936192e+002,5.010665e+002
3.955477e+002,5.038519e+002
3.974761e+002,5.089272e+002
3.994046e+002,5.173566e+002
4.013331e+002,5.215925e+002
4.032615e+002,5.174133e+002
4.051900e+002,5.123901e+002
4.071185e+002,5.133281e+002
4.090469e+002,5.226652e+002
4.109754e+002,5.312565e+002
4.129039e+002,5.380026e+002
4.148323e+002,5.427571e+002
4.167608e+002,5.440760e+002
4.186893e+002,5.373644e+002
4.206177e+002,5.312007e+002
4.225462e+002,5.299139e+002
4.244747e+002,5.340464e+002
4.264032e+002,5.373556e+002
4.283316e+002,5.379765e+002
4.302601e+002,5.373267e+002
4.321886e+002,5.378824e+002
4.341170e+002,5.405172e+002
4.360455e+002,5.430558e+002
4.379740e+002,5.449336e+002
4.399024e+002,5.462862e+002
4.418309e+002,5.474038e+002
4.437594e+002,5.469719e+002
4.456878e+002,5.470949e+002
4.476163e+002,5.495527e+002
4.495448e+002,5.546274e+002
4.514732e+002,5.600471e+002
4.534017e+002,5.665969e+002
4.553302e+002,5.731789e+002
4.572586e+002,5.769641e+002
4.591871e+002,5.764998e+002
4.611156e+002,5.748190e+002
4.630440e+002,5.725797e+002
4.649725e+002,5.698405e+002
4.669010e+002,5.665966e+002
4.688294e+002,5.588463e+002
4.707579e+002,5.530345e+002
4.726864e+002,5.542829e+002
4.746148e+002,5.698640e+002
4.765433e+002,5.840229e+002
4.784718e+002,5.967015e+002
4.804002e+002,6.068354e+002
4.823287e+002,6.127381e+002
4.842572e+002,6.121204e+002
4.861856e+002,6.098210e+002
4.881141e+002,6.080508e+002
4.900426e+002,6.073928e+002
4.919710e+002,6.057184e+002
4.938995e+002,5.990630e+002
4.958280e+002,5.941042e+002
4.977564e+002,5.979562e+002
4.996849e+002,6.149097e+002
5.016134e+002,6.279943e+002
5.035418e+002,6.320395e+002
5.054703e+002,6.288151e+002
5.073988e+002,6.254386e+002
5.093272e+002,6.175753e+002
5.112557e+002,6.133297e+002
5.131842e+002,6.181125e+002
5.151127e+002,6.311438e+002
5.170411e+002,6.414783e+002
5.189696e+002,6.468458e+002
5.208981e+002,6.492526e+002
5.228265e+002,6.498756e+002
5.247550e+002,6.485424e+002
5.266835e+002,6.463011e+002
5.286119e+002,6.418763e+002
5.305404e+002,6.369943e+002
5.324689e+002,6.346536e+002
5.343973e+002,6.374860e+002
5.363258e+002,6.400788e+002
5.382543e+002,6.401569e+002
5.401827e+002,6.372209e+002
5.421112e+002,6.356918e+002
5.440397e+002,6.358287e+002
5.459681e+002,6.367368e+002
5.478966e+002,6.380030e+002
5.498251e+002,6.399502e+002
5.517535e+002,6.414133e+002
5.536820e+002,6.422100e+002
5.556105e+002,6.429948e+002
5.575389e+002,6.446307e+002
5.594674e+002,6.466305e+002
5.613959e+002,6.510317e+002
5.633243e+002,6.634099e+002
5.652528e+002,6.806252e+002
5.671813e+002,6.869426e+002
5.691097e+002,6.653000e+002
5.710382e+002,6.466000e+002
5.729667e+002,6.447750e+002
5.748951e+002,6.612709e+002
5.768236e+002,6.769257e+002
5.787521e+002,6.918793e+002
5.806805e+002,7.034070e+002
5.826090e+002,7.094283e+002
5.845375e+002,7.071234e+002
5.864659e+002,7.039914e+002
5.883944e+002,7.023317e+002
5.903229e+002,7.002906e+002
5.922513e+002,6.939575e+002
5.941798e+002,6.811673e+002
5.961083e+002,6.695421e+002
5.980367e+002,6.605119e+002
5.999652e+002,6.541660e+002
6.018937e+002,6.541512e+002
6.038221e+002,6.671942e+002
6.057506e+002,6.800881e+002
6.076791e+002,6.856322e+002
6.096075e+002,6.835002e+002
6.115360e+002,6.839810e+002
6.134645e+002,6.898367e+002
6.153929e+002,6.974605e+002
6.173214e+002,7.051969e+002
6.192499e+002,7.179012e+002
6.211783e+002,7.211951e+002
6.231068e+002,7.068895e+002
6.250353e+002,6.859438e+002
6.269637e+002,6.758224e+002
6.288922e+002,6.807572e+002
6.308207e+002,6.855052e+002
6.327491e+002,6.829470e+002
6.346776e+002,6.753822e+002
6.366061e+002,6.731138e+002
6.385345e+002,6.795503e+002
6.404630e+002,6.870289e+002
6.423915e+002,6.938021e+002
6.443199e+002,6.995988e+002
6.462484e+002,7.039186e+002
6.481769e+002,7.083963e+002
6.501053e+002,7.096838e+002
6.520338e+002,7.049205e+002
6.539623e+002,6.895380e+002
6.558907e+002,6.824688e+002
6.578192e+002,6.913412e+002
6.597477e+002,7.037356e+002
6.616761e+002,7.065362e+002
6.636046e+002,6.976420e+002
6.655331e+002,6.913707e+002
6.674615e+002,6.927077e+002
6.693900e+002,6.982546e+002
6.713185e+002,7.040759e+002
6.732469e+002,7.134106e+002
6.751754e+002,7.194702e+002
6.771039e+002,7.171276e+002
6.790323e+002,7.111989e+002
6.809608e+002,7.147190e+002
6.828893e+002,7.346234e+002
6.848177e+002,7.519356e+002
6.867462e+002,7.576273e+002
6.886747e+002,7.522149e+002
6.906031e+002,7.504382e+002
6.925316e+002,7.549608e+002
6.944601e+002,7.603163e+002
6.963885e+002,7.660915e+002
6.983170e+002,7.720585e+002
7.002455e+002,7.727097e+002
7.021740e+002,7.623687e+002
7.041024e+002,7.513502e+002
7.060309e+002,7.457375e+002
7.079594e+002,7.473232e+002
7.098878e+002,7.481659e+002
7.118163e+002,7.457569e+002
7.137448e+002,7.436202e+002
7.156732e+002,7.461866e+002
7.176017e+002,7.545576e+002
7.195302e+002,7.603054e+002
7.214586e+002,7.567659e+002
7.233871e+002,7.528965e+002
7.253156e+002,7.583373e+002
7.272440e+002,7.809809e+002
7.291725e+002,8.003742e+002
7.311010e+002,8.115529e+002
7.330294e+002,8.189509e+002
7.349579e+002,8.290294e+002
7.368864e+002,8.384303e+002
7.388149e+002,8.565823e+002
7.407433e+002,8.960004e+002
7.426718e+002,9.455596e+002
7.446003e+002,9.807430e+002
7.465287e+002,1.000756e+003
7.484572e+002,1.005157e+003
7.503857e+002,9.877762e+002
7.523141e+002,9.530325e+002
7.542426e+002,9.203403e+002
7.561711e+002,8.876778e+002
7.580995e+002,8.605494e+002
7.600280e+002,8.417346e+002
7.619565e+002,8.301718e+002
7.638849e+002,8.223161e+002
7.658134e+002,8.198491e+002
7.677419e+002,8.188763e+002
7.696703e+002,8.186611e+002
7.715988e+002,8.190289e+002
7.735273e+002,8.187036e+002
7.754557e+002,8.191003e+002
7.773842e+002,8.171816e+002
7.793127e+002,8.107172e+002
7.812411e+002,8.002520e+002
7.831696e+002,7.909015e+002
7.850981e+002,7.793950e+002
7.870266e+002,7.730529e+002
7.889550e+002,7.780342e+002
7.908835e+002,7.974265e+002
7.928120e+002,8.095085e+002
7.947404e+002,8.115399e+002
7.966689e+002,8.085173e+002
7.985974e+002,7.995859e+002
8.005258e+002,7.842438e+002
8.024543e+002,7.780558e+002
8.043828e+002,7.935346e+002
8.063112e+002,8.105386e+002
8.082397e+002,8.172462e+002
8.101682e+002,8.090685e+002
8.120966e+002,8.042009e+002
8.140251e+002,8.045329e+002
8.159536e+002,8.069528e+002
8.178820e+002,8.100922e+002
8.198105e+002,8.143103e+002
8.217390e+002,8.183776e+002
8.236674e+002,8.223837e+002
8.255959e+002,8.265754e+002
8.275244e+002,8.308169e+002
8.294528e+002,8.343071e+002
8.313813e+002,8.399799e+002
8.333098e+002,8.510948e+002
8.352382e+002,8.616979e+002
8.371667e+002,8.662250e+002
8.390952e+002,8.645432e+002
8.410236e+002,8.629329e+002
8.429521e+002,8.595740e+002
8.448806e+002,8.592177e+002
8.468090e+002,8.658615e+002
8.487375e+002,8.833625e+002
8.506660e+002,8.979952e+002
8.525944e+002,9.055879e+002
8.545229e+002,9.132399e+002
8.564514e+002,9.269179e+002
8.583798e+002,9.466544e+002
8.603083e+002,9.678894e+002
8.622368e+002,9.991965e+002
8.641652e+002,1.023069e+003
8.660937e+002,1.027481e+003
8.680222e+002,1.008822e+003
8.699506e+002,9.865485e+002
8.718791e+002,9.555032e+002
8.738076e+002,9.266584e+002
8.757360e+002,9.085228e+002
8.776645e+002,9.026539e+002
8.795930e+002,8.957939e+002
8.815214e+002,8.846142e+002
8.834499e+002,8.751282e+002
8.853784e+002,8.728229e+002
8.873068e+002,8.779373e+002
8.892353e+002,8.775459e+002
8.911638e+002,8.585191e+002
8.930922e+002,8.433201e+002
8.950207e+002,8.448124e+002
8.969492e+002,8.655253e+002
8.988776e+002,8.792466e+002
9.008061e+002,8.834716e+002
9.027346e+002,8.831232e+002
9.046630e+002,8.790754e+002
9.065915e+002,8.723342e+002
9.085200e+002,8.663097e+002
9.104484e+002,8.616948e+002
9.123769e+002,8.588647e+002
9.143054e+002,8.585922e+002
9.162338e+002,8.610511e+002
9.181623e+002,8.641700e+002
9.200908e+002,8.679208e+002
9.220192e+002,8.722832e+002
9.239477e+002,8.776820e+002
9.258762e+002,8.832076e+002
9.278046e+002,8.864895e+002
9.297331e+002,8.859745e+002
9.316616e+002,8.842945e+002
9.335900e+002,8.794837e+002
9.355185e+002,8.738040e+002
9.374470e+002,8.745791e+002
9.393754e+002,8.895915e+002
9.413039e+002,9.013943e+002
9.432324e+002,9.055907e+002
9.451608e+002,9.057482e+002
9.470893e+002,9.094149e+002
9.490178e+002,9.192074e+002
9.509462e+002,9.259392e+002
9.528747e+002,9.240137e+002
9.548032e+002,9.197178e+002
9.567316e+002,9.206233e+002
9.586601e+002,9.290094e+002
9.605886e+002,9.347668e+002
9.625170e+002,9.364486e+002
9.644455e+002,9.346428e+002
9.663740e+002,9.284514e+002
9.683024e+002,9.130874e+002
9.702309e+002,9.058489e+002
9.721594e+002,9.143298e+002
9.740878e+002,9.249627e+002
9.760163e+002,9.266368e+002
9.779448e+002,9.202144e+002
9.798733e+002,9.178890e+002
9.818018e+002,9.220800e+002
9.837302e+002,9.301136e+002
9.856587e+002,9.395700e+002
9.875872e+002,9.502863e+002
9.895156e+002,9.684649e+002
9.914441e+002,9.938714e+002
9.933726e+002,1.026689e+003
9.953010e+002,1.079493e+003
9.972295e+002,1.141477e+003
9.991580e+002,1.174365e+003
1.001086e+003,1.174766e+003
1.003015e+003,1.155602e+003
1.004943e+003,1.105548e+003
1.006872e+003,1.042797e+003
1.008800e+003,9.953265e+002
1.010729e+003,9.656305e+002
1.012657e+003,9.457437e+002
1.014586e+003,9.362120e+002
1.016514e+003,9.331865e+002
1.018443e+003,9.338383e+002
1.020371e+003,9.422144e+002
1.022300e+003,9.440446e+002
1.024228e+003,9.338110e+002
1.026156e+003,9.213395e+002
1.028085e+003,9.139126e+002
1.030013e+003,9.110923e+002
1.031942e+003,9.073051e+002
1.033870e+003,8.969796e+002
1.035799e+003,8.919417e+002
1.037727e+003,9.016470e+002
1.039656e+003,9.240983e+002
1.041584e+003,9.347222e+002
1.043513e+003,9.179025e+002
1.045441e+003,9.071427e+002
1.047370e+003,9.126384e+002
1.049298e+003,9.287608e+002
1.051227e+003,9.420853e+002
1.053155e+003,9.509069e+002
1.055083e+003,9.627003e+002
1.057012e+003,9.860895e+002
1.058940e+003,1.009328e+003
1.060869e+003,1.020487e+003
1.062797e+003,1.017707e+003
1.064726e+003,1.013203e+003
1.066654e+003,1.007289e+003
1.068583e+003,1.000838e+003
1.070511e+003,9.929514e+002
1.072440e+003,9.829289e+002
1.074368e+003,9.784596e+002
1.076297e+003,9.862742e+002
1.078225e+003,9.920761e+002
1.080154e+003,9.892825e+002
1.082082e+003,9.815552e+002
1.084010e+003,9.787833e+002
1.085939e+003,9.831203e+002
1.087867e+003,9.879340e+002
1.089796e+003,9.921615e+002
1.091724e+003,9.947883e+002
1.093653e+003,9.928499e+002
1.095581e+003,9.820420e+002
1.097510e+003,9.788730e+002
1.099438e+003,9.894508e+002
1.101367e+003,1.003471e+003
1.103295e+003,1.015344e+003
1.105224e+003,1.025189e+003
1.107152e+003,1.033887e+003
1.109081e+003,1.046831e+003
1.111009e+003,1.054008e+003
1.112938e+003,1.047982e+003
1.114866e+003,1.034020e+003
1.116794e+003,1.024103e+003
1.118723e+003,1.019319e+003
1.120651e+003,1.015040e+003
1.122580e+003,1.007448e+003
1.124508e+003,1.000469e+003
1.126437e+003,9.987025e+002
1.128365e+003,1.003850e+003
1.130294e+003,1.009465e+003
1.132222e+003,1.014806e+003
1.134151e+003,1.021706e+003
1.136079e+003,1.033474e+003
1.138008e+003,1.049500e+003
1.139936e+003,1.059063e+003
1.141865e+003,1.061924e+003
1.143793e+003,1.058054e+003
1.145721e+003,1.033949e+003
1.147650e+003,1.007368e+003
1.149578e+003,1.009365e+003
1.151507e+003,1.048816e+003
1.153435e+003,1.077043e+003
1.155364e+003,1.075091e+003
1.157292e+003,1.064205e+003
1.159221e+003,1.057334e+003
1.161149e+003,1.055738e+003
1.163078e+003,1.052167e+003
1.165006e+003,1.042923e+003
1.166935e+003,1.036764e+003
1.168863e+003,1.040377e+003
1.170792e+003,1.048963e+003
1.172720e+003,1.047419e+003
1.174648e+003,1.028866e+003
1.176577e+003,1.018476e+003
1.178505e+003,1.025477e+003
1.180434e+003,1.039438e+003
1.182362e+003,1.053654e+003
1.184291e+003,1.067873e+003
1.186219e+003,1.075636e+003
1.188148e+003,1.070909e+003
1.190076e+003,1.066693e+003
1.192005e+003,1.069770e+003
1.193933e+003,1.077821e+003
1.195862e+003,1.082665e+003
1.197790e+003,1.081320e+003
1.199719e+003,1.081668e+003
1.201647e+003,1.086399e+003
1.203575e+003,1.091412e+003
1.205504e+003,1.092605e+003
1.207432e+003,1.089201e+003
1.209361e+003,1.085669e+003
1.211289e+003,1.076532e+003
1.213218e+003,1.073816e+003
1.215146e+003,1.086687e+003
1.217075e+003,1.109168e+003
1.219003e+003,1.130032e+003
1.220932e+003,1.150004e+003
1.222860e+003,1.166260e+003
1.224789e+003,1.182332e+003
1.226717e+003,1.190647e+003
1.228646e+003,1.181168e+003
1.230574e+003,1.150720e+003
1.232502e+003,1.130641e+003
1.234431e+003,1.125326e+003
1.236359e+003,1.125373e+003
1.238288e+003,1.136372e+003
1.240216e+003,1.149410e+003
1.242145e+003,1.144394e+003
1.244073e+003,1.111635e+003
1.246002e+003,1.087291e+003
1.247930e+003,1.073647e+003
1.249859e+003,1.070225e+003
1.251787e+003,1.084754e+003
1.253716e+003,1.111510e+003
1.255644e+003,1.122427e+003
1.257573e+003,1.106680e+003
1.259501e+003,1.094925e+003
1.261429e+003,1.105607e+003
1.263358e+003,1.121695e+003
1.265286e+003,1.120493e+003
1.267215e+003,1.096577e+003
1.269143e+003,1.088284e+003
1.271072e+003,1.114111e+003
1.273000e+003,1.141317e+003
1.274929e+003,1.160889e+003
1.276857e+003,1.172750e+003
1.278786e+003,1.176345e+003
1.280714e+003,1.163938e+003
1.282643e+003,1.155166e+003
1.284571e+003,1.159958e+003
1.286500e+003,1.161620e+003
1.288428e+003,1.137438e+003
1.290356e+003,1.091487e+003
1.292285e+003,1.078818e+003
1.294213e+003,1.122070e+003
1.296142e+003,1.158468e+003
1.298070e+003,1.160242e+003
1.299999e+003,1.146005e+003
1.301927e+003,1.132661e+003
1.303856e+003,1.119350e+003
1.305784e+003,1.123754e+003
1.307713e+003,1.165209e+003
1.309641e+003,1.202597e+003
1.311570e+003,1.213739e+003
1.313498e+003,1.208855e+003
1.315427e+003,1.216050e+003
1.317355e+003,1.245496e+003
1.319283e+003,1.265106e+003
1.321212e+003,1.265429e+003
1.323140e+003,1.262135e+003
1.325069e+003,1.259731e+003
1.326997e+003,1.259526e+003
1.328926e+003,1.278387e+003
1.330854e+003,1.344154e+003
1.332783e+003,1.383468e+003
1.334711e+003,1.361938e+003
1.336640e+003,1.324872e+003
1.338568e+003,1.313573e+003
1.340497e+003,1.326531e+003
1.342425e+003,1.351178e+003
1.344354e+003,1.391549e+003
1.346282e+003,1.434284e+003
1.348210e+003,1.497471e+003
1.350139e+003,1.546541e+003
1.352068e+003,1.534495e+003
1.353996e+003,1.457507e+003
1.355924e+003,1.377848e+003
1.357853e+003,1.293375e+003
1.359781e+003,1.222768e+003
1.361710e+003,1.170840e+003
1.363638e+003,1.137764e+003
1.365567e+003,1.127706e+003
1.367495e+003,1.154648e+003
1.369424e+003,1.166541e+003
1.371352e+003,1.139366e+003
1.373281e+003,1.120848e+003
1.375209e+003,1.144466e+003
1.377138e+003,1.194786e+003
1.379066e+003,1.219950e+003
1.380995e+003,1.206585e+003
1.382923e+003,1.194068e+003
1.384851e+003,1.183576e+003
1.386780e+003,1.174586e+003
1.388708e+003,1.164714e+003
1.390637e+003,1.155640e+003
1.392565e+003,1.153561e+003
1.394494e+003,1.157852e+003
1.396422e+003,1.171718e+003
1.398351e+003,1.213658e+003
1.400279e+003,1.249973e+003
1.402208e+003,1.243743e+003
1.404136e+003,1.210930e+003
1.406065e+003,1.211900e+003
1.407993e+003,1.259797e+003
1.409922e+003,1.311273e+003
1.411850e+003,1.371497e+003
1.413778e+003,1.414690e+003
1.415707e+003,1.417558e+003
1.417635e+003,1.384178e+003
1.419564e+003,1.354140e+003
1.421492e+003,1.330115e+003
1.423421e+003,1.306783e+003
1.425349e+003,1.280653e+003
1.427278e+003,1.255846e+003
1.429206e+003,1.233572e+003
1.431135e+003,1.213457e+003
1.433063e+003,1.202707e+003
1.434992e+003,1.200513e+003
1.436920e+003,1.208336e+003
1.438849e+003,1.236188e+003
1.440777e+003,1.266535e+003
1.442705e+003,1.285537e+003
1.444634e+003,1.293871e+003
1.446562e+003,1.300196e+003
1.448491e+003,1.310941e+003
1.450419e+003,1.309845e+003
1.452348e+003,1.282540e+003
1.454276e+003,1.251600e+003
1.456205e+003,1.238414e+003
1.458133e+003,1.238951e+003
1.460062e+003,1.227627e+003
1.461990e+003,1.192434e+003
1.463919e+003,1.176151e+003
1.465847e+003,1.211594e+003
1.467776e+003,1.252125e+003
1.469704e+003,1.256409e+003
1.471632e+003,1.237457e+003
1.473561e+003,1.243637e+003
1.475489e+003,1.287846e+003
1.477418e+003,1.320150e+003
1.479346e+003,1.320849e+003
1.481275e+003,1.311218e+003
1.483203e+003,1.303926e+003
1.485132e+003,1.297068e+003
1.487060e+003,1.283831e+003
1.488989e+003,1.261721e+003
1.490917e+003,1.240784e+003
1.492846e+003,1.211699e+003
1.494774e+003,1.197505e+003
1.496703e+003,1.222238e+003
1.498631e+003,1.270112e+003
1.500559e+003,1.293408e+003
1.502488e+003,1.285072e+003
1.504416e+003,1.272634e+003
1.506345e+003,1.252637e+003
1.508273e+003,1.234832e+003
1.510202e+003,1.218235e+003
1.512130e+003,1.207771e+003
1.514059e+003,1.216156e+003
1.515987e+003,1.256307e+003
1.517916e+003,1.276455e+003
1.519844e+003,1.254321e+003
1.521773e+003,1.243276e+003
1.523701e+003,1.272045e+003
1.525630e+003,1.313823e+003
1.527558e+003,1.332709e+003
1.529486e+003,1.325401e+003
1.531415e+003,1.317594e+003
1.533343e+003,1.297244e+003
1.535272e+003,1.291490e+003
1.537200e+003,1.309905e+003
1.539129e+003,1.341795e+003
1.541057e+003,1.384563e+003
1.542986e+003,1.435816e+003
1.544914e+003,1.473137e+003
1.546843e+003,1.496484e+003
1.548771e+003,1.508923e+003
1.550700e+003,1.511723e+003
1.552628e+003,1.503422e+003
1.554557e+003,1.473157e+003
1.556485e+003,1.431414e+003
1.558413e+003,1.402399e+003
1.560342e+003,1.383627e+003
1.562270e+003,1.393801e+003
1.564199e+003,1.461062e+003
1.566127e+003,1.521741e+003
1.568056e+003,1.550676e+003
1.569984e+003,1.551934e+003
1.571913e+003,1.526245e+003
1.573841e+003,1.475229e+003
1.575770e+003,1.429004e+003
1.577698e+003,1.388892e+003
1.579627e+003,1.358970e+003
1.581555e+003,1.350426e+003
1.583484e+003,1.344230e+003
1.585412e+003,1.313079e+003
1.587340e+003,1.269557e+003
1.589269e+003,1.276082e+003
1.591197e+003,1.355286e+003
1.593126e+003,1.400932e+003
1.595054e+003,1.352787e+003
1.596983e+003,1.310391e+003
1.598911e+003,1.340893e+003
1.600840e+003,1.407112e+003
1.602768e+003,1.436830e+003
1.604697e+003,1.427001e+003
1.606625e+003,1.414907e+003
1.608554e+003,1.403956e+003
1.610482e+003,1.392727e+003
1.612411e+003,1.378722e+003
1.614339e+003,1.366753e+003
1.616267e+003,1.365386e+003
1.618196e+003,1.372546e+003
1.620124e+003,1.363866e+003
1.622053e+003,1.328743e+003
1.623981e+003,1.308505e+003
1.625910e+003,1.321581e+003
1.627838e+003,1.339166e+003
1.629767e+003,1.349536e+003
1.631695e+003,1.353815e+003
1.633624e+003,1.353260e+003
1.635552e+003,1.346499e+003
1.637481e+003,1.343277e+003
1.639409e+003,1.347361e+003
1.641338e+003,1.350471e+003
1.643266e+003,1.348326e+003
1.645194e+003,1.347465e+003
1.647123e+003,1.354955e+003
1.649051e+003,1.368751e+003
1.650980e+003,1.377270e+003
1.652908e+003,1.379561e+003
1.654837e+003,1.377162e+003
1.656765e+003,1.359651e+003
1.658694e+003,1.349315e+003
1.660622e+003,1.366891e+003
1.662551e+003,1.387940e+003
1.664479e+003,1.376494e+003
1.666408e+003,1.330841e+003
1.668336e+003,1.307917e+003
1.670265e+003,1.323720e+003
1.672193e+003,1.332292e+003
1.674121e+003,1.311777e+003
1.676050e+003,1.299180e+003
1.677978e+003,1.321775e+003
1.679907e+003,1.362850e+003
1.681835e+003,1.389827e+003
1.683764e+003,1.402136e+003
1.685692e+003,1.396826e+003
1.687621e+003,1.345719e+003
1.689549e+003,1.320991e+003
1.691478e+003,1.363232e+003
1.693406e+003,1.411503e+003
1.695335e+003,1.420886e+003
1.697263e+003,1.402633e+003
1.699192e+003,1.392037e+003
1.701120e+003,1.392005e+003
1.703048e+003,1.389153e+003
1.704977e+003,1.373650e+003
1.706905e+003,1.366300e+003
1.708834e+003,1.378589e+003
1.710762e+003,1.394290e+003
1.712691e+003,1.403314e+003
1.714619e+003,1.404522e+003
1.716548e+003,1.386992e+003
1.718476e+003,1.336391e+003
1.720405e+003,1.318097e+003
1.722333e+003,1.363201e+003
1.724262e+003,1.408154e+003
1.726190e+003,1.445359e+003
1.728119e+003,1.464474e+003
1.730047e+003,1.442996e+003
1.731975e+003,1.388769e+003
1.733904e+003,1.367740e+003
1.735832e+003,1.392932e+003
1.737761e+003,1.406365e+003
1.739689e+003,1.391184e+003
1.741618e+003,1.378005e+003
1.743546e+003,1.380533e+003
1.745475e+003,1.386880e+003
1.747403e+003,1.381253e+003
1.749332e+003,1.366738e+003
1.751260e+003,1.373190e+003
1.753189e+003,1.410696e+003
1.755117e+003,1.424488e+003
1.757046e+003,1.381500e+003
1.758974e+003,1.355484e+003
1.760902e+003,1.393497e+003
1.762831e+003,1.443706e+003
1.764759e+003,1.458245e+003
1.766688e+003,1.444339e+003
1.768616e+003,1.432376e+003
1.770545e+003,1.421104e+003
1.772473e+003,1.418916e+003
1.774402e+003,1.429867e+003
1.776330e+003,1.443057e+003
1.778259e+003,1.463960e+003
1.780187e+003,1.475867e+003
1.782116e+003,1.451997e+003
1.784044e+003,1.411357e+003
1.785973e+003,1.412009e+003
1.787901e+003,1.458380e+003
1.789829e+003,1.494495e+003
1.791758e+003,1.511623e+003
1.793686e+003,1.522292e+003
1.795615e+003,1.527844e+003
1.797543e+003,1.531862e+003
1.799472e+003,1.539464e+003
1.801400e+003,1.546191e+003
1.803329e+003,1.541688e+003
1.805257e+003,1.526162e+003
1.807186e+003,1.513682e+003
1.809114e+003,1.503564e+003
1.811043e+003,1.501824e+003
1.812971e+003,1.517287e+003
1.814900e+003,1.532946e+003
1.816828e+003,1.547722e+003
1.818756e+003,1.552466e+003
1.820685e+003,1.522714e+003
1.822613e+003,1.465859e+003
1.824542e+003,1.442661e+003
1.826470e+003,1.464266e+003
1.828399e+003,1.484883e+003
1.830327e+003,1.505191e+003
1.832256e+003,1.512993e+003
1.834184e+003,1.492364e+003
1.836113e+003,1.467584e+003
1.838041e+003,1.465001e+003
1.839970e+003,1.478255e+003
1.841898e+003,1.482367e+003
1.843827e+003,1.473227e+003
1.845755e+003,1.471932e+003
1.847684e+003,1.490170e+003
1.849612e+003,1.498392e+003
1.851541e+003,1.471958e+003
1.853469e+003,1.453496e+003
1.855397e+003,1.478955e+003
1.857326e+003,1.523649e+003
1.859254e+003,1.550761e+003
1.861183e+003,1.560072e+003
1.863111e+003,1.545508e+003
1.865040e+003,1.482980e+003
1.866968e+003,1.451193e+003
1.868897e+003,1.468562e+003
1.870825e+003,1.500754e+003
1.872754e+003,1.569161e+003
1.874682e+003,1.619548e+003
1.876611e+003,1.585952e+003
1.878539e+003,1.501598e+003
1.880468e+003,1.464529e+003
1.882396e+003,1.477178e+003
1.884324e+003,1.494736e+003
1.886253e+003,1.520509e+003
1.888181e+003,1.531736e+003
1.890110e+003,1.508374e+003
1.892038e+003,1.489673e+003
1.893967e+003,1.507282e+003
1.895895e+003,1.529722e+003
1.897824e+003,1.520914e+003
1.899752e+003,1.490747e+003
1.901681e+003,1.467787e+003
1.903609e+003,1.452635e+003
1.905538e+003,1.455377e+003
1.907466e+003,1.486121e+003
1.909395e+003,1.512896e+003
1.911323e+003,1.522425e+003
1.913251e+003,1.529977e+003
1.915180e+003,1.545278e+003
1.917108e+003,1.561937e+003
1.919037e+003,1.573960e+003
1.920965e+003,1.580232e+003
1.922894e+003,1.573555e+003
1.924822e+003,1.548307e+003
1.926751e+003,1.532412e+003
1.928679e+003,1.538119e+003
1.930608e+003,1.537031e+003
1.932536e+003,1.508581e+003
1.934465e+003,1.490016e+003
1.936393e+003,1.514637e+003
1.938322e+003,1.552615e+003
1.940250e+003,1.558722e+003
1.942178e+003,1.538816e+003
1.944107e+003,1.541550e+003
1.946035e+003,1.577575e+003
1.947964e+003,1.590706e+003
1.949892e+003,1.561371e+003
1.951821e+003,1.544065e+003
1.953749e+003,1.565860e+003
1.955678e+003,1.585046e+003
1.957606e+003,1.571685e+003
1.959535e+003,1.553075e+003
1.961463e+003,1.565342e+003
1.963392e+003,1.596251e+003
1.965320e+003,1.604369e+003
1.967249e+003,1.588196e+003
1.969177e+003,1.584259e+003
1.971105e+003,1.600990e+003
1.973034e+003,1.616004e+003
1.974962e+003,1.631286e+003
1.976891e+003,1.633835e+003
1.978819e+003,1.602155e+003
1.980748e+003,1.569392e+003
1.982676e+003,1.564212e+003
1.984605e+003,1.581462e+003
1.986533e+003,1.617893e+003
1.988462e+003,1.676160e+003
1.990390e+003,1.698342e+003
1.992319e+003,1.658027e+003
1.994247e+003,1.628279e+003
1.996176e+003,1.617041e+003
1.998104e+003,1.607220e+003
2.000032e+003,1.593985e+003
2.001961e+003,1.581735e+003
2.003889e+003,1.566383e+003
2.005818e+003,1.557403e+003
2.007746e+003,1.572538e+003
2.009675e+003,1.607385e+003
2.011603e+003,1.641379e+003
2.013532e+003,1.675860e+003
2.015460e+003,1.682897e+003
2.017389e+003,1.647620e+003
2.019317e+003,1.627871e+003
2.021246e+003,1.650774e+003
2.023174e+003,1.672750e+003
2.025103e+003,1.672009e+003
2.027031e+003,1.661944e+003
2.028959e+003,1.650138e+003
2.030888e+003,1.638040e+003
2.032816e+003,1.628967e+003
2.034745e+003,1.622759e+003
2.036673e+003,1.616810e+003
2.038602e+003,1.607331e+003
2.040530e+003,1.610165e+003
2.042459e+003,1.635241e+003
2.044387e+003,1.658449e+003
2.046316e+003,1.684333e+003
2.048244e+003,1.696992e+003
2.050173e+003,1.675985e+003
2.052101e+003,1.650214e+003
2.054030e+003,1.644684e+003
2.055958e+003,1.655831e+003
2.057886e+003,1.681575e+003
2.059815e+003,1.719311e+003
2.061743e+003,1.742290e+003
2.063672e+003,1.749340e+003
2.065600e+003,1.739015e+003
2.067529e+003,1.701129e+003
2.069457e+003,1.673139e+003
2.071386e+003,1.666355e+003
2.073314e+003,1.671938e+003
2.075243e+003,1.700433e+003
2.077171e+003,1.725921e+003
2.079100e+003,1.714577e+003
2.081028e+003,1.688684e+003
2.082957e+003,1.697149e+003
2.084885e+003,1.736021e+003
2.086813e+003,1.751829e+003
2.088742e+003,1.732111e+003
2.090670e+003,1.726729e+003
2.092599e+003,1.760395e+003
2.094527e+003,1.756222e+003
2.096456e+003,1.650780e+003
2.098384e+003,1.584364e+003
2.100313e+003,1.647491e+003
2.102241e+003,1.722046e+003
2.104170e+003,1.728691e+003
2.106098e+003,1.704093e+003
2.108027e+003,1.687376e+003
2.109955e+003,1.679266e+003
2.111884e+003,1.686317e+003
2.113812e+003,1.708250e+003
2.115740e+003,1.714854e+003
2.117669e+003,1.694830e+003
2.119597e+003,1.691566e+003
2.121526e+003,1.720776e+003
2.123454e+003,1.751036e+003
2.125383e+003,1.789940e+003
2.127311e+003,1.809730e+003
2.129240e+003,1.779702e+003
2.131168e+003,1.740160e+003
2.133097e+003,1.725952e+003
2.135025e+003,1.727520e+003
2.136954e+003,1.730734e+003
2.138882e+003,1.734944e+003
2.140811e+003,1.734823e+003
2.142739e+003,1.730814e+003
2.144667e+003,1.734555e+003
2.146596e+003,1.750467e+003
2.148524e+003,1.758505e+003
2.150453e+003,1.751457e+003
2.152381e+003,1.741822e+003
2.154310e+003,1.722024e+003
2.156238e+003,1.714550e+003
2.158167e+003,1.746683e+003
2.160095e+003,1.780617e+003
2.162024e+003,1.775750e+003
2.163952e+003,1.753833e+003
2.165881e+003,1.753186e+003
2.167809e+003,1.769702e+003
2.169738e+003,1.780306e+003
2.171666e+003,1.784510e+003
2.173594e+003,1.781564e+003
2.175523e+003,1.767635e+003
2.177451e+003,1.769569e+003
2.179380e+003,1.803537e+003
2.181308e+003,1.820593e+003
2.183237e+003,1.793483e+003
2.185165e+003,1.767880e+003
2.187094e+003,1.760944e+003
2.189022e+003,1.766456e+003
2.190951e+003,1.784790e+003
2.192879e+003,1.808931e+003
2.194808e+003,1.837215e+003
2.196736e+003,1.861120e+003
2.198665e+003,1.855677e+003
2.200593e+003,1.820937e+003
2.202521e+003,1.779124e+003
2.204450e+003,1.727902e+003
2.206378e+003,1.699080e+003
2.208307e+003,1.697632e+003
2.210235e+003,1.710981e+003
2.212164e+003,1.745222e+003
2.214092e+003,1.775540e+003
2.216021e+003,1.804334e+003
2.217949e+003,1.813546e+003
2.219878e+003,1.771218e+003
2.221806e+003,1.731272e+003
2.223735e+003,1.743927e+003
2.225663e+003,1.776870e+003
2.227592e+003,1.791502e+003
2.229520e+003,1.790448e+003
2.231448e+003,1.775909e+003
2.233377e+003,1.751011e+003
2.235305e+003,1.749030e+003
2.237234e+003,1.771681e+003
2.239162e+003,1.785634e+003
2.241091e+003,1.786888e+003
2.243019e+003,1.789400e+003
2.244948e+003,1.795252e+003
2.246876e+003,1.802275e+003
2.248805e+003,1.817185e+003
2.250733e+003,1.820261e+003
2.252662e+003,1.790691e+003
2.254590e+003,1.761812e+003
2.256519e+003,1.757663e+003
2.258447e+003,1.762286e+003
2.260375e+003,1.761419e+003
2.262304e+003,1.758446e+003
2.264232e+003,1.760379e+003
2.266161e+003,1.764355e+003
2.268089e+003,1.758092e+003
2.270018e+003,1.743287e+003
2.271946e+003,1.738638e+003
2.273875e+003,1.745287e+003
2.275803e+003,1.757008e+003
2.277732e+003,1.779310e+003
2.279660e+003,1.794084e+003
2.281589e+003,1.803222e+003
2.283517e+003,1.801115e+003
2.285446e+003,1.763674e+003
2.287374e+003,1.748278e+003
2.289302e+003,1.796049e+003
2.291231e+003,1.841627e+003
2.293159e+003,1.844921e+003
2.295088e+003,1.834997e+003
2.297016e+003,1.832724e+003
2.298945e+003,1.835216e+003
2.300873e+003,1.839936e+003
2.302802e+003,1.846134e+003
2.304730e+003,1.852178e+003
2.306659e+003,1.857854e+003
2.308587e+003,1.863266e+003
2.310516e+003,1.869811e+003
2.312444e+003,1.862514e+003
2.314373e+003,1.838653e+003
2.316301e+003,1.817537e+003
2.318229e+003,1.800663e+003
2.320158e+003,1.787315e+003
2.322086e+003,1.769291e+003
2.324015e+003,1.777026e+003
2.325943e+003,1.853445e+003
2.327872e+003,1.909458e+003
2.329800e+003,1.900900e+003
2.331729e+003,1.875360e+003
2.333657e+003,1.842340e+003
2.335586e+003,1.822085e+003
2.337514e+003,1.840262e+003
2.339443e+003,1.873664e+003
2.341371e+003,1.900515e+003
2.343300e+003,1.917244e+003
2.345228e+003,1.913607e+003
2.347156e+003,1.895696e+003
2.349085e+003,1.883462e+003
2.351013e+003,1.876672e+003
2.352942e+003,1.859472e+003
2.354870e+003,1.828769e+003
2.356799e+003,1.811030e+003
2.358727e+003,1.809359e+003
2.360656e+003,1.811554e+003
2.362584e+003,1.815188e+003
2.364513e+003,1.827875e+003
2.366441e+003,1.854063e+003
2.368370e+003,1.879940e+003
2.370298e+003,1.912307e+003
2.372227e+003,1.922353e+003
2.374155e+003,1.869138e+003
2.376083e+003,1.830003e+003
2.378012e+003,1.861068e+003
2.379940e+003,1.901203e+003
2.381869e+003,1.917557e+003
2.383797e+003,1.910071e+003
2.385726e+003,1.857710e+003
2.387654e+003,1.797811e+003
2.389583e+003,1.794271e+003
2.391511e+003,1.817589e+003
2.393440e+003,1.794016e+003
2.395368e+003,1.747585e+003
2.397297e+003,1.776802e+003
2.399225e+003,1.873472e+003
2.401154e+003,1.926278e+003
2.403082e+003,1.930093e+003
2.405010e+003,1.922962e+003
2.406939e+003,1.899328e+003
2.408867e+003,1.898068e+003
2.410796e+003,1.930700e+003
2.412724e+003,1.934960e+003
2.414653e+003,1.886757e+003
2.416581e+003,1.863892e+003
2.418510e+003,1.905442e+003
2.420438e+003,1.932266e+003
2.422367e+003,1.898202e+003
2.424295e+003,1.880939e+003
2.426224e+003,1.928518e+003
2.428152e+003,1.968581e+003
2.430081e+003,1.966765e+003
2.432009e+003,1.951064e+003
2.433938e+003,1.931187e+003
2.435866e+003,1.913685e+003
2.437794e+003,1.907115e+003
2.439723e+003,1.902553e+003
2.441651e+003,1.879107e+003
2.443580e+003,1.858370e+003
2.445508e+003,1.885657e+003
2.447437e+003,1.934754e+003
2.449365e+003,1.943601e+003
2.451294e+003,1.923933e+003
2.453222e+003,1.921864e+003
2.455151e+003,1.933181e+003
2.457079e+003,1.936292e+003
2.459008e+003,1.932205e+003
2.460936e+003,1.932702e+003
2.462865e+003,1.939340e+003
2.464793e+003,1.945422e+003
2.466721e+003,1.951221e+003
2.468650e+003,1.954435e+003
2.470578e+003,1.954724e+003
2.472507e+003,1.947141e+003
2.474435e+003,1.924473e+003
2.476364e+003,1.922990e+003
2.478292e+003,1.962203e+003
2.480221e+003,1.985356e+003
2.482149e+003,1.980085e+003
2.484078e+003,1.955196e+003
2.486006e+003,1.882410e+003
2.487935e+003,1.837866e+003
2.489863e+003,1.858540e+003
2.491792e+003,1.892500e+003
2.493720e+003,1.941158e+003
2.495648e+003,1.966257e+003
2.497577e+003,1.924570e+003
2.499505e+003,1.880135e+003
2.501434e+003,1.873215e+003
2.503362e+003,1.884484e+003
2.505291e+003,1.918176e+003
2.507219e+003,1.942199e+003
2.509148e+003,1.896352e+003
2.511076e+003,1.846030e+003
2.513005e+003,1.893223e+003
2.514933e+003,1.971343e+003
2.516862e+003,1.986075e+003
2.518790e+003,1.960916e+003
2.520719e+003,1.930196e+003
2.522647e+003,1.898852e+003
2.524575e+003,1.874045e+003
2.526504e+003,1.861230e+003
2.528432e+003,1.898223e+003
2.530361e+003,1.969569e+003
2.532289e+003,1.978443e+003
2.534218e+003,1.935444e+003
2.536146e+003,1.915759e+003
2.538075e+003,1.921824e+003
2.540003e+003,1.943046e+003
2.541932e+003,1.985131e+003
2.543860e+003,1.987937e+003
2.545789e+003,1.943915e+003
2.547717e+003,1.913205e+003
2.549646e+003,1.898113e+003
2.551574e+003,1.894816e+003
2.553502e+003,1.904984e+003
2.555431e+003,1.911589e+003
2.557359e+003,1.910711e+003
2.559288e+003,1.909275e+003
2.561216e+003,1.905312e+003
2.563145e+003,1.904866e+003
2.565073e+003,1.908171e+003
2.567002e+003,1.915766e+003
2.568930e+003,1.930604e+003
2.570859e+003,1.941167e+003
2.572787e+003,1.935312e+003
2.574716e+003,1.945916e+003
2.576644e+003,2.010743e+003
2.578573e+003,2.046032e+003
2.580501e+003,2.009229e+003
2.582429e+003,1.971736e+003
2.584358e+003,1.952209e+003
2.586287e+003,1.934592e+003
2.588215e+003,1.916654e+003
2.590144e+003,1.893945e+003
2.592072e+003,1.850168e+003
2.594000e+003,1.823177e+003
2.595929e+003,1.837469e+003
2.597857e+003,1.865437e+003
2.599786e+003,1.904136e+003
2.601714e+003,1.935646e+003
2.603643e+003,1.952218e+003
2.605571e+003,1.954845e+003
2.607500e+003,1.934438e+003
2.609428e+003,1.912342e+003
2.611357e+003,1.896620e+003
2.613285e+003,1.895713e+003
2.615214e+003,1.937923e+003
2.617142e+003,1.974395e+003
2.619071e+003,1.950116e+003
2.620999e+003,1.913898e+003
2.622927e+003,1.901170e+003
2.624856e+003,1.904580e+003
2.626784e+003,1.938195e+003
2.628713e+003,1.962418e+003
2.630641e+003,1.896735e+003
2.632570e+003,1.829976e+003
2.634498e+003,1.903755e+003
2.636427e+003,2.010138e+003
2.638355e+003,2.009405e+003
2.640284e+003,1.967496e+003
2.642212e+003,1.963632e+003
2.644141e+003,1.978697e+003
2.646069e+003,1.985956e+003
2.647998e+003,1.991122e+003
2.649926e+003,2.012987e+003
2.651854e+003,2.032416e+003
2.653783e+003,2.006764e+003
2.655711e+003,1.965207e+003
2.657640e+003,1.951438e+003
2.659568e+003,1.957348e+003
2.661497e+003,1.967914e+003
2.663425e+003,1.986537e+003
2.665354e+003,2.039529e+003
2.667282e+003,2.094034e+003
2.669211e+003,2.063578e+003
2.671139e+003,1.991168e+003
2.673068e+003,1.957318e+003
2.674996e+003,1.948584e+003
2.676925e+003,1.932709e+003
2.678853e+003,1.920602e+003
2.680781e+003,1.952312e+003
2.682710e+003,2.001894e+003
2.684638e+003,2.004377e+003
2.686567e+003,1.976861e+003
2.688495e+003,1.953756e+003
2.690424e+003,1.932702e+003
2.692352e+003,1.895230e+003
2.694281e+003,1.861261e+003
2.696209e+003,1.896444e+003
2.698138e+003,1.970165e+003
2.700066e+003,2.007947e+003
2.701995e+003,2.018956e+003
2.703923e+003,2.021023e+003
2.705852e+003,2.014768e+003
2.707780e+003,1.997820e+003
2.709708e+003,1.976444e+003
2.711637e+003,1.968739e+003
2.713565e+003,1.969189e+003
2.715494e+003,1.965472e+003
2.717422e+003,1.960698e+003
2.719351e+003,1.956938e+003
2.721279e+003,1.959781e+003
2.723208e+003,1.991451e+003
2.725136e+003,2.032284e+003
2.727065e+003,2.030847e+003
2.728993e+003,2.010853e+003
2.730922e+003,2.020975e+003
2.732850e+003,2.044014e+003
2.734779e+003,2.050146e+003
2.736707e+003,2.047570e+003
2.738635e+003,2.051365e+003
2.740564e+003,2.058429e+003
2.742492e+003,2.066652e+003
2.744421e+003,2.072794e+003
2.746349e+003,2.079768e+003
2.748278e+003,2.075399e+003
2.750206e+003,2.016975e+003
2.752135e+003,1.956901e+003
2.754063e+003,1.988047e+003
2.755992e+003,2.048547e+003
2.757920e+003,2.071444e+003
2.759849e+003,2.060305e+003
2.761777e+003,1.986737e+003
2.763706e+003,1.917746e+003
2.765634e+003,1.945927e+003
2.767563e+003,2.002027e+003
2.769491e+003,2.011042e+003
2.771419e+003,2.010011e+003
2.773348e+003,2.038255e+003
2.775276e+003,2.065433e+003
2.777205e+003,2.053796e+003
2.779133e+003,2.041815e+003
2.781062e+003,2.086154e+003
2.782990e+003,2.113597e+003
2.784919e+003,2.026679e+003
2.786847e+003,1.955632e+003
2.788776e+003,2.015985e+003
2.790704e+003,2.073383e+003
2.792633e+003,2.025790e+003
2.794561e+003,1.977067e+003
2.796490e+003,1.986633e+003
2.798418e+003,2.013908e+003
2.800346e+003,2.061216e+003
2.802275e+003,2.086330e+003
2.804203e+003,2.040961e+003
2.806132e+003,2.011274e+003
2.808060e+003,2.058558e+003
2.809989e+003,2.078737e+003
2.811917e+003,2.007975e+003
2.813846e+003,1.981554e+003
2.815774e+003,2.069967e+003
2.817703e+003,2.133967e+003
2.819631e+003,2.106118e+003
2.821560e+003,2.095427e+003
2.823488e+003,2.148896e+003
2.825417e+003,2.146236e+003
2.827345e+003,2.049134e+003
2.829273e+003,1.988983e+003
2.831202e+003,1.998216e+003
2.833130e+003,2.023589e+003
2.835059e+003,2.073316e+003
2.836987e+003,2.096464e+003
2.838916e+003,2.087324e+003
2.840844e+003,2.072770e+003
2.842773e+003,2.052911e+003
2.844701e+003,2.061962e+003
2.846630e+003,2.111687e+003
2.848558e+003,2.123090e+003
2.850487e+003,2.093327e+003
2.852415e+003,2.122820e+003
2.854344e+003,2.200814e+003
2.856272e+003,2.196179e+003
2.858200e+003,2.119590e+003
2.860129e+003,2.097332e+003
2.862057e+003,2.120133e+003
2.863986e+003,2.146815e+003
2.865914e+003,2.169784e+003
2.867843e+003,2.160863e+003
2.869771e+003,2.129293e+003
2.871700e+003,2.082402e+003
2.873628e+003,2.038345e+003
2.875557e+003,2.040740e+003
2.877485e+003,2.062638e+003
2.879414e+003,2.064339e+003
2.881342e+003,2.059999e+003
2.883271e+003,2.060299e+003
2.885199e+003,2.069045e+003
2.887127e+003,2.101873e+003
2.889056e+003,2.129808e+003
2.890984e+003,2.106205e+003
2.892913e+003,2.101652e+003
2.894841e+003,2.193245e+003
2.896770e+003,2.266673e+003
2.898698e+003,2.243346e+003
2.900627e+003,2.212340e+003
2.902555e+003,2.209339e+003
2.904484e+003,2.199630e+003
2.906412e+003,2.163728e+003
2.908341e+003,2.142198e+003
2.910269e+003,2.156727e+003
2.912198e+003,2.169019e+003
2.914126e+003,2.172198e+003
2.916054e+003,2.186183e+003
2.917983e+003,2.217570e+003
2.919911e+003,2.226962e+003
2.921840e+003,2.195211e+003
2.923768e+003,2.205771e+003
2.925697e+003,2.266665e+003
2.927625e+003,2.294114e+003
2.929554e+003,2.288251e+003
2.931482e+003,2.253991e+003
2.933411e+003,2.203183e+003
2.935339e+003,2.233989e+003
2.937268e+003,2.316145e+003
2.939196e+003,2.307085e+003
2.941125e+003,2.250671e+003
2.943053e+003,2.255269e+003
2.944981e+003,2.282833e+003
2.946910e+003,2.271065e+003
2.948838e+003,2.244797e+003
2.950767e+003,2.244515e+003
2.952695e+003,2.236614e+003
2.954624e+003,2.172097e+003
2.956552e+003,2.116235e+003
2.958481e+003,2.120071e+003
2.960409e+003,2.141593e+003
2.962338e+003,2.171031e+003
2.964266e+003,2.190069e+003
2.966195e+003,2.186101e+003
2.968123e+003,2.185708e+003
2.970052e+003,2.200127e+003
2.971980e+003,2.216986e+003
2.973908e+003,2.242044e+003
2.975837e+003,2.241211e+003
2.977765e+003,2.206954e+003
2.979694e+003,2.169680e+003
2.981622e+003,2.129147e+003
2.983551e+003,2.104956e+003
2.985479e+003,2.096778e+003
2.987408e+003,2.103483e+003
2.989336e+003,2.118509e+003
2.991265e+003,2.099569e+003
2.993193e+003,2.062977e+003
2.995122e+003,2.057166e+003
2.997050e+003,2.079061e+003
2.998979e+003,2.140532e+003
3.000907e+003,2.206896e+003
3.002835e+003,2.245935e+003
3.004764e+003,2.252664e+003
3.006692e+003,2.193308e+003
3.008621e+003,2.138046e+003
3.010549e+003,2.137090e+003
3.012478e+003,2.143736e+003
3.014406e+003,2.134999e+003
3.016335e+003,2.128210e+003
3.018263e+003,2.124910e+003
3.020192e+003,2.137438e+003
3.022120e+003,2.175863e+003
3.024049e+003,2.193051e+003
3.025977e+003,2.172930e+003
3.027906e+003,2.159651e+003
3.029834e+003,2.153271e+003
3.031762e+003,2.169589e+003
3.033691e+003,2.206353e+003
3.035619e+003,2.239827e+003
3.037548e+003,2.273431e+003
3.039476e+003,2.324890e+003
3.041405e+003,2.390868e+003
3.043333e+003,2.457143e+003
3.045262e+003,2.536993e+003
3.047190e+003,2.689151e+003
3.049119e+003,2.810798e+003
3.051047e+003,2.791598e+003
3.052976e+003,2.699962e+003
3.054904e+003,2.543700e+003
3.056833e+003,2.401065e+003
3.058761e+003,2.309742e+003
3.060689e+003,2.241093e+003
3.062618e+003,2.199370e+003
3.064546e+003,2.150332e+003
3.066475e+003,2.080192e+003
3.068403e+003,2.077156e+003
3.070332e+003,2.172465e+003
3.072260e+003,2.237706e+003
3.074189e+003,2.270830e+003
3.076117e+003,2.233789e+003
3.078046e+003,2.151028e+003
3.079974e+003,2.121738e+003
3.081903e+003,2.131042e+003
3.083831e+003,2.165449e+003
3.085760e+003,2.195901e+003
3.087688e+003,2.170996e+003
3.089616e+003,2.141495e+003
3.091545e+003,2.143848e+003
3.093473e+003,2.164456e+003
3.095402e+003,2.228137e+003
3.097330e+003,2.246594e+003
3.099259e+003,2.170000e+003
3.101187e+003,2.111463e+003
3.103116e+003,2.108350e+003
3.105044e+003,2.108677e+003
3.106973e+003,2.110452e+003
3.108901e+003,2.133831e+003
3.110830e+003,2.176020e+003
3.112758e+003,2.155233e+003
3.114687e+003,2.090752e+003
3.116615e+003,2.078283e+003
3.118543e+003,2.098218e+003
3.120472e+003,2.124005e+003
3.122400e+003,2.139632e+003
3.124329e+003,2.107469e+003
3.126257e+003,2.083668e+003
3.128186e+003,2.129138e+003
3.130114e+003,2.162765e+003
3.132043e+003,2.134295e+003
3.133971e+003,2.114881e+003
3.135900e+003,2.140456e+003
3.137828e+003,2.117191e+003
3.139757e+003,2.022868e+003
3.141685e+003,2.016381e+003
3.143614e+003,2.118996e+003
3.145542e+003,2.136751e+003
3.147470e+003,2.086840e+003
3.149399e+003,2.085822e+003
3.151327e+003,2.111559e+003
3.153256e+003,2.134117e+003
3.155184e+003,2.137229e+003
3.157113e+003,2.080620e+003
3.159041e+003,2.020252e+003
3.160970e+003,1.981083e+003
3.162898e+003,1.969483e+003
3.164827e+003,2.016211e+003
3.166755e+003,2.033031e+003
3.168684e+003,1.994531e+003
3.170612e+003,1.987163e+003
3.172541e+003,2.030797e+003
3.174469e+003,2.053493e+003
3.176397e+003,2.054736e+003
3.178326e+003,2.102071e+003
3.180254e+003,2.163125e+003
3.182183e+003,2.132028e+003
3.184111e+003,2.061715e+003
3.186040e+003,2.017717e+003
3.187968e+003,2.004905e+003
3.189897e+003,2.044739e+003
3.191825e+003,2.083506e+003
3.193754e+003,2.091670e+003
3.195682e+003,2.096759e+003
3.197611e+003,2.106016e+003
3.199539e+003,2.109729e+003
3.201468e+003,2.105964e+003
3.203396e+003,2.100403e+003
3.205324e+003,2.093128e+003
3.207253e+003,2.053490e+003
3.209181e+003,2.005802e+003
3.211110e+003,2.034525e+003
3.213038e+003,2.090615e+003
3.214967e+003,2.094238e+003
3.216895e+003,2.092844e+003
3.218824e+003,2.130578e+003
3.220752e+003,2.163713e+003
3.222681e+003,2.167490e+003
3.224609e+003,2.166398e+003
3.226538e+003,2.162668e+003
3.228466e+003,2.169030e+003
3.230395e+003,2.190571e+003
3.232323e+003,2.146786e+003
3.234251e+003,2.046939e+003
3.236180e+003,1.991545e+003
3.238108e+003,1.968328e+003
3.240037e+003,1.947444e+003
3.241965e+003,1.941476e+003
3.243894e+003,1.977539e+003
3.245822e+003,2.016760e+003
3.247751e+003,2.039391e+003
3.249679e+003,2.056297e+003
3.251608e+003,2.054560e+003
3.253536e+003,2.092832e+003
3.255465e+003,2.183064e+003
3.257393e+003,2.205459e+003
3.259322e+003,2.154081e+003
3.261250e+003,2.091990e+003
3.263178e+003,2.030363e+003
3.265107e+003,1.995200e+003
3.267035e+003,1.992775e+003
3.268964e+003,2.059334e+003
3.270892e+003,2.120247e+003
3.272821e+003,2.133122e+003
3.274749e+003,2.107126e+003
3.276678e+003,2.013338e+003
3.278606e+003,1.975450e+003
3.280535e+003,2.018930e+003
3.282463e+003,2.078876e+003
3.284392e+003,2.144978e+003
3.286320e+003,2.147551e+003
3.288249e+003,2.109079e+003
3.290177e+003,2.083763e+003
3.292105e+003,2.061592e+003
3.294034e+003,2.026933e+003
3.295962e+003,1.998381e+003
3.297891e+003,1.980114e+003
3.299819e+003,1.989948e+003
3.301748e+003,2.043176e+003
3.303676e+003,2.061417e+003
3.305605e+003,2.019918e+003
3.307533e+003,2.029314e+003
3.309462e+003,2.077755e+003
3.311390e+003,2.089935e+003
3.313319e+003,2.086943e+003
3.315247e+003,2.116289e+003
3.317176e+003,2.136425e+003
3.319104e+003,2.100940e+003
3.321032e+003,2.065127e+003
3.322961e+003,2.043290e+003
3.324889e+003,2.055292e+003
3.326818e+003,2.113867e+003
3.328746e+003,2.111271e+003
3.330675e+003,2.048523e+003
3.332603e+003,2.090884e+003
3.334532e+003,2.183718e+003
3.336460e+003,2.148211e+003
3.338389e+003,2.081177e+003
3.340317e+003,2.089798e+003
3.342246e+003,2.103775e+003
3.344174e+003,2.078696e+003
3.346103e+003,2.069039e+003
3.348031e+003,2.094498e+003
3.349959e+003,2.102399e+003
3.351888e+003,2.087676e+003
3.353816e+003,2.074220e+003
3.355745e+003,2.070359e+003
3.357673e+003,2.123148e+003
3.359602e+003,2.171785e+003
3.361530e+003,2.093995e+003
3.363459e+003,2.038828e+003
3.365387e+003,2.127841e+003
3.367316e+003,2.186108e+003
3.369244e+003,2.163098e+003
3.371173e+003,2.125050e+003
3.373101e+003,2.078270e+003
3.375030e+003,2.069677e+003
3.376958e+003,2.089531e+003
3.378886e+003,2.106998e+003
3.380815e+003,2.122882e+003
3.382743e+003,2.128779e+003
3.384672e+003,2.148683e+003
3.386600e+003,2.199342e+003
3.388529e+003,2.259204e+003
3.390457e+003,2.310894e+003
3.392386e+003,2.473102e+003
3.394314e+003,2.754184e+003
3.396243e+003,2.877024e+003
3.398171e+003,2.883585e+003
3.400100e+003,2.875532e+003
3.402028e+003,2.846255e+003
3.403957e+003,2.805260e+003
3.405885e+003,2.707226e+003
3.407813e+003,2.483620e+003
3.409742e+003,2.330374e+003
3.411670e+003,2.288798e+003
3.413599e+003,2.259511e+003
3.415527e+003,2.236457e+003
3.417456e+003,2.203141e+003
3.419384e+003,2.171379e+003
3.421313e+003,2.162888e+003
3.423241e+003,2.171632e+003
3.425170e+003,2.223676e+003
3.427098e+003,2.229661e+003
3.429027e+003,2.144101e+003
3.430955e+003,2.096102e+003
3.432884e+003,2.101079e+003
3.434812e+003,2.130375e+003
3.436740e+003,2.167323e+003
3.438669e+003,2.147473e+003
3.440597e+003,2.110681e+003
3.442526e+003,2.096712e+003
3.444454e+003,2.087397e+003
3.446383e+003,2.064261e+003
3.448311e+003,2.081424e+003
3.450240e+003,2.169620e+003
3.452168e+003,2.197996e+003
3.454097e+003,2.173133e+003
3.456025e+003,2.148918e+003
3.457954e+003,2.123174e+003
3.459882e+003,2.086601e+003
3.461811e+003,2.056900e+003
3.463739e+003,2.043418e+003
3.465667e+003,2.042340e+003
3.467596e+003,2.063644e+003
3.469524e+003,2.057636e+003
3.471453e+003,2.032001e+003
3.473381e+003,2.081134e+003
3.475310e+003,2.155542e+003
3.477238e+003,2.149116e+003
3.479167e+003,2.120910e+003
3.481095e+003,2.112281e+003
3.483024e+003,2.101511e+003
3.484952e+003,2.078396e+003
3.486881e+003,2.070835e+003
3.488809e+003,2.078338e+003
3.490738e+003,2.058443e+003
3.492666e+003,2.027999e+003
3.494594e+003,2.020895e+003
3.496523e+003,2.041413e+003
3.498451e+003,2.134480e+003
3.500380e+003,2.172589e+003
3.502308e+003,2.107745e+003
3.504237e+003,2.074941e+003
3.506165e+003,2.090440e+003
3.508094e+003,2.107140e+003
3.510022e+003,2.117292e+003
3.511951e+003,2.089804e+003
3.513879e+003,2.067058e+003
3.515808e+003,2.099262e+003
3.517736e+003,2.123715e+003
3.519665e+003,2.125887e+003
3.521593e+003,2.106855e+003
3.523521e+003,2.067838e+003
3.525450e+003,2.077108e+003
3.527378e+003,2.106968e+003
3.529307e+003,2.109308e+003
3.531235e+003,2.091710e+003
3.533164e+003,2.041121e+003
3.535092e+003,2.020425e+003
3.537021e+003,2.060918e+003
3.538949e+003,2.093220e+003
3.540878e+003,2.116401e+003
3.542806e+003,2.149010e+003
3.544735e+003,2.173093e+003
3.546663e+003,2.148581e+003
3.548592e+003,2.114298e+003
3.550520e+003,2.083222e+003
3.552448e+003,2.074905e+003
3.554377e+003,2.102198e+003
3.556305e+003,2.090923e+003
3.558234e+003,2.058744e+003
3.560162e+003,2.099130e+003
3.562091e+003,2.158391e+003
3.564019e+003,2.181828e+003
3.565948e+003,2.168547e+003
3.567876e+003,2.076694e+003
3.569805e+003,2.047076e+003
3.571733e+003,2.088412e+003
3.573662e+003,2.114677e+003
3.575590e+003,2.121482e+003
3.577519e+003,2.083529e+003
3.579447e+003,2.056887e+003
3.581376e+003,2.107263e+003
3.583304e+003,2.137236e+003
3.585233e+003,2.113392e+003
3.587161e+003,2.104307e+003
3.589090e+003,2.111400e+003
3.591018e+003,2.105007e+003
3.592947e+003,2.095821e+003
3.594875e+003,2.103951e+003
3.596803e+003,2.112021e+003
3.598732e+003,2.111528e+003
3.600660e+003,2.108469e+003
3.602589e+003,2.103534e+003
3.604517e+003,2.110649e+003
3.606446e+003,2.107602e+003
3.608374e+003,1.966006e+003
3.610303e+003,1.862732e+003
3.612231e+003,2.001324e+003
3.614160e+003,2.110867e+003
3.616088e+003,2.132045e+003
3.618017e+003,2.080921e+003
3.619945e+003,1.985057e+003
3.621874e+003,2.048285e+003
3.623802e+003,2.137720e+003
3.625730e+003,2.047157e+003
3.627659e+003,1.999354e+003
3.629587e+003,2.121418e+003
3.631516e+003,2.177844e+003
3.633444e+003,2.138406e+003
3.635373e+003,2.119324e+003
3.637301e+003,2.113306e+003
3.639230e+003,2.102463e+003
3.641158e+003,2.100885e+003
3.643087e+003,2.131440e+003
3.645015e+003,2.145433e+003
3.646944e+003,2.135479e+003
3.648872e+003,2.126035e+003
3.650801e+003,2.123151e+003
3.652729e+003,2.167311e+003
3.654657e+003,2.194027e+003
3.656586e+003,2.119451e+003
3.658514e+003,2.071490e+003
3.660443e+003,2.080336e+003
3.662371e+003,2.082748e+003
3.664300e+003,2.080266e+003
3.666228e+003,2.111833e+003
3.668157e+003,2.144833e+003
3.670085e+003,2.141142e+003
3.672014e+003,2.138872e+003
3.673942e+003,2.154274e+003
3.675871e+003,2.113566e+003
3.677799e+003,2.029180e+003
3.679728e+003,2.062855e+003
3.681656e+003,2.125327e+003
3.683584e+003,2.095274e+003
3.685513e+003,2.084265e+003
3.687441e+003,2.138720e+003
3.689370e+003,2.167013e+003
3.691298e+003,2.161271e+003
3.693227e+003,2.151258e+003
3.695155e+003,2.138392e+003
3.697084e+003,2.115394e+003
3.699012e+003,2.110710e+003
3.700941e+003,2.141966e+003
3.702869e+003,2.160442e+003
3.704798e+003,2.162277e+003
3.706726e+003,2.189621e+003
3.708655e+003,2.196661e+003
3.710583e+003,2.067264e+003
3.712511e+003,2.006077e+003
3.714440e+003,2.131943e+003
3.716368e+003,2.193238e+003
3.718297e+003,2.168395e+003
3.720225e+003,2.173657e+003
3.722154e+003,2.176084e+003
3.724082e+003,2.108677e+003
3.726011e+003,2.066535e+003
3.727939e+003,2.102566e+003
3.729868e+003,2.113734e+003
3.731796e+003,2.091000e+003
3.733725e+003,2.027133e+003
3.735653e+003,1.984699e+003
3.737582e+003,2.087985e+003
3.739510e+003,2.143238e+003
3.741438e+003,2.047844e+003
3.743367e+003,2.046384e+003
3.745295e+003,2.138621e+003
3.747224e+003,2.193155e+003
3.749152e+003,2.202417e+003
3.751081e+003,2.136751e+003
3.753009e+003,2.079641e+003
3.754938e+003,2.058994e+003
3.756866e+003,2.031920e+003
3.758795e+003,2.003053e+003
3.760723e+003,2.014092e+003
3.762652e+003,2.028571e+003
3.764580e+003,2.013292e+003
3.766509e+003,1.991802e+003
3.768437e+003,1.966996e+003
3.770365e+003,1.966237e+003
3.772294e+003,1.985544e+003
3.774222e+003,2.021997e+003
3.776151e+003,2.047949e+003
3.778079e+003,2.039570e+003
3.780008e+003,2.024659e+003
3.781936e+003,2.007134e+003
3.783865e+003,2.040784e+003
3.785793e+003,2.089233e+003
3.787722e+003,2.064016e+003
3.789650e+003,2.044543e+003
3.791579e+003,2.075154e+003
3.793507e+003,2.119778e+003
3.795436e+003,2.167704e+003
3.797364e+003,2.104046e+003
3.799292e+003,2.018103e+003
3.801221e+003,2.045176e+003
3.803149e+003,2.063298e+003
3.805078e+003,2.018842e+003
3.807006e+003,2.029815e+003
3.808935e+003,2.078843e+003
3.810863e+003,2.074290e+003
3.812792e+003,2.044655e+003
3.814720e+003,2.003079e+003
3.816649e+003,1.970891e+003
3.818577e+003,1.950759e+003
3.820506e+003,1.981841e+003
3.822434e+003,2.031435e+003
3.824363e+003,2.020588e+003
3.826291e+003,2.021593e+003
3.828219e+003,2.088590e+003
3.830148e+003,2.069975e+003
3.832076e+003,1.965815e+003
3.834005e+003,2.010813e+003
3.835933e+003,2.100951e+003
3.837862e+003,2.141642e+003
3.839790e+003,2.117316e+003
3.841719e+003,2.018884e+003
3.843647e+003,2.008719e+003
3.845576e+003,2.055578e+003
3.847504e+003,2.046361e+003
3.849433e+003,2.030973e+003
3.851361e+003,2.053418e+003
3.853290e+003,2.037957e+003
3.855218e+003,1.986729e+003
3.857146e+003,2.018922e+003
3.859075e+003,2.065666e+003
3.861003e+003,2.010662e+003
3.862932e+003,1.986948e+003
3.864860e+003,2.064930e+003
3.866789e+003,2.042162e+003
3.868717e+003,1.965886e+003
3.870646e+003,2.016005e+003
3.872574e+003,2.057591e+003
3.874503e+003,1.990480e+003
3.876431e+003,1.959486e+003
3.878360e+003,1.978905e+003
3.880288e+003,2.007434e+003
3.882217e+003,2.036721e+003
3.884145e+003,2.067937e+003
3.886073e+003,2.070340e+003
3.888002e+003,2.027064e+003
3.889930e+003,2.023722e+003
3.891859e+003,2.041964e+003
3.893787e+003,2.017825e+003
3.895716e+003,2.012635e+003
3.897644e+003,2.073804e+003
3.899573e+003,2.077356e+003
3.901501e+003,2.020692e+003
3.903430e+003,1.990846e+003
3.905358e+003,1.987483e+003
3.907287e+003,2.026109e+003
3.909215e+003,2.051748e+003
3.911144e+003,2.055441e+003
3.913072e+003,2.057975e+003
3.915000e+003,2.059693e+003
3.916929e+003,2.069405e+003
3.918857e+003,2.053878e+003
3.920786e+003,1.977328e+003
3.922714e+003,1.984584e+003
3.924643e+003,2.043153e+003
3.926571e+003,2.040303e+003
3.928500e+003,2.004846e+003
3.930428e+003,1.925908e+003
3.932357e+003,1.955620e+003
3.934285e+003,2.080474e+003
3.936214e+003,2.071594e+003
3.938142e+003,2.010097e+003
3.940071e+003,1.938900e+003
3.941999e+003,1.947556e+003
3.943927e+003,2.068305e+003
3.945856e+003,2.041134e+003
3.947784e+003,1.973097e+003
3.949713e+003,2.051189e+003
3.951641e+003,2.089547e+003
3.953570e+003,2.033754e+003
3.955498e+003,1.979832e+003
3.957427e+003,1.943740e+003
3.959355e+003,1.969924e+003
3.961284e+003,1.986175e+003
3.963212e+003,1.941280e+003
3.965141e+003,1.930618e+003
3.967069e+003,1.951111e+003
3.968998e+003,1.972687e+003
3.970926e+003,1.984435e+003
3.972854e+003,1.969645e+003
3.974783e+003,1.980570e+003
3.976711e+003,2.013915e+003
3.978640e+003,2.001165e+003
3.980568e+003,1.981908e+003
3.982497e+003,1.999888e+003
3.984425e+003,2.000573e+003
3.986354e+003,1.972832e+003
3.988282e+003,1.998275e+003
3.990211e+003,2.028174e+003
3.992139e+003,1.994638e+003
3.994068e+003,1.954479e+003
3.995996e+003,1.920360e+003
3.997925e+003,1.936474e+003
3.999853e+003,1.959664e+003
4.001781e+003,1.898896e+003
4.003710e+003,1.865281e+003
4.005638e+003,1.895405e+003
4.007567e+003,1.915836e+003
4.009495e+003,1.929145e+003
4.011424e+003,1.949259e+003
4.013352e+003,1.965020e+003
4.015281e+003,1.971128e+003
4.017209e+003,1.964679e+003
4.019138e+003,1.953292e+003
4.021066e+003,1.958224e+003
4.022995e+003,1.962927e+003
4.024923e+003,1.955368e+003
4.026852e+003,2.001917e+003
4.028780e+003,2.069682e+003
4.030708e+003,2.010441e+003
4.032637e+003,1.952405e+003
4.034565e+003,1.973136e+003
4.036494e+003,1.952497e+003
4.038422e+003,1.904784e+003
4.040351e+003,1.957952e+003
4.042279e+003,1.990090e+003
4.044208e+003,1.874766e+003
4.046136e+003,1.872759e+003
4.048065e+003,1.956793e+003
4.049993e+003,1.947056e+003
4.051922e+003,1.929062e+003
4.053850e+003,1.965246e+003
4.055779e+003,1.950394e+003
4.057707e+003,1.898372e+003
4.059635e+003,1.949341e+003
4.061564e+003,1.990647e+003
4.063492e+003,1.935430e+003
4.065421e+003,1.917863e+003
4.067349e+003,1.940731e+003
4.069278e+003,1.944247e+003
4.071206e+003,1.933493e+003
4.073135e+003,1.898153e+003
4.075063e+003,1.893560e+003
4.076992e+003,1.911815e+003
4.078920e+003,1.889827e+003
4.080849e+003,1.869559e+003
4.082777e+003,1.880780e+003
4.084706e+003,1.889261e+003
4.086634e+003,1.892538e+003
4.088563e+003,1.892292e+003
4.090491e+003,1.896269e+003
4.092419e+003,1.915473e+003
4.094348e+003,1.882492e+003
4.096276e+003,1.825994e+003
4.098205e+003,1.911721e+003
4.100133e+003,1.985062e+003
4.102062e+003,1.954786e+003
4.103990e+003,1.915981e+003
4.105919e+003,1.881074e+003
4.107847e+003,1.865472e+003
4.109776e+003,1.865023e+003
4.111704e+003,1.882276e+003
4.113633e+003,1.907493e+003
4.115561e+003,1.929715e+003
4.117490e+003,1.922231e+003
4.119418e+003,1.905811e+003
4.121347e+003,1.886546e+003
4.123275e+003,1.899792e+003
4.125204e+003,1.926748e+003
4.127132e+003,1.930717e+003
4.129061e+003,1.918894e+003
4.130989e+003,1.892781e+003
4.132917e+003,1.938755e+003
4.134846e+003,2.004053e+003
4.136774e+003,2.009632e+003
4.138703e+003,1.982399e+003
4.140631e+003,1.928391e+003
4.142560e+003,1.891652e+003
4.144488e+003,1.883459e+003
4.146417e+003,1.955759e+003
4.148345e+003,1.940356e+003
4.150273e+003,1.818423e+003
4.152202e+003,1.849310e+003
4.154130e+003,1.914544e+003
4.156059e+003,1.914469e+003
4.157987e+003,1.879759e+003
4.159916e+003,1.826766e+003
4.161844e+003,1.840123e+003
4.163773e+003,1.857996e+003
4.165701e+003,1.833569e+003
4.167630e+003,1.814471e+003
4.169558e+003,1.813169e+003
4.171487e+003,1.867307e+003
4.173415e+003,1.914170e+003
4.175344e+003,1.927962e+003
4.177272e+003,1.926537e+003
4.179201e+003,1.912666e+003
4.181129e+003,1.875641e+003
4.183058e+003,1.863687e+003
4.184986e+003,1.886808e+003
4.186915e+003,1.895135e+003
4.188843e+003,1.892371e+003
4.190771e+003,1.883556e+003
4.192700e+003,1.869162e+003
4.194628e+003,1.851838e+003
4.196557e+003,1.873335e+003
4.198485e+003,1.897484e+003
4.200414e+003,1.899183e+003
4.202342e+003,1.878115e+003
4.204271e+003,1.852077e+003
4.206199e+003,1.919762e+003
4.208127e+003,1.962447e+003
4.210056e+003,1.913019e+003
4.211984e+003,1.873779e+003
4.213913e+003,1.849341e+003
4.215841e+003,1.838558e+003
4.217770e+003,1.852732e+003
4.219698e+003,1.902953e+003
4.221627e+003,1.865595e+003
4.223555e+003,1.808405e+003
4.225484e+003,1.796755e+003
4.227412e+003,1.836045e+003
4.229341e+003,1.911948e+003
4.231269e+003,1.915984e+003
4.233198e+003,1.899304e+003
4.235126e+003,1.898976e+003
4.237055e+003,1.864800e+003
4.238983e+003,1.822037e+003
4.240912e+003,1.843142e+003
4.242840e+003,1.866542e+003
4.244769e+003,1.871251e+003
4.246697e+003,1.889933e+003
4.248625e+003,1.900105e+003
4.250554e+003,1.889735e+003
