1.159199e+002,5.680872e+002
1.178484e+002,6.677286e+002
1.197769e+002,7.779301e+002
1.217053e+002,8.995670e+002
1.236338e+002,1.005143e+003
1.255623e+002,1.099650e+003
1.274907e+002,1.176336e+003
1.294192e+002,1.233007e+003
1.313477e+002,1.255490e+003
1.332761e+002,1.271059e+003
1.352046e+002,1.293307e+003
1.371331e+002,1.326467e+003
1.390615e+002,1.329274e+003
1.409900e+002,1.277904e+003
1.429185e+002,1.191422e+003
1.448469e+002,1.100552e+003
1.467754e+002,1.000269e+003
1.487039e+002,9.006594e+002
1.506323e+002,8.054378e+002
1.525608e+002,7.141679e+002
1.544893e+002,6.337648e+002
1.564177e+002,5.662997e+002
1.583462e+002,5.110685e+002
1.602747e+002,4.649380e+002
1.622031e+002,4.260601e+002
1.641316e+002,3.962447e+002
1.660601e+002,3.763239e+002
1.679885e+002,3.716091e+002
1.699170e+002,3.639570e+002
1.718455e+002,3.484816e+002
1.737739e+002,3.250190e+002
1.757024e+002,3.046662e+002
1.776309e+002,2.869596e+002
1.795593e+002,2.722021e+002
1.814878e+002,2.605815e+002
1.834163e+002,2.531077e+002
1.853447e+002,2.476499e+002
1.872732e+002,2.432673e+002
1.892017e+002,2.399913e+002
1.911301e+002,2.411565e+002
1.930586e+002,2.499616e+002
1.949871e+002,2.626726e+002
1.969155e+002,2.751214e+002
1.988440e+002,2.924666e+002
2.007725e+002,3.052230e+002
2.027009e+002,3.099848e+002
2.046294e+002,3.072350e+002
2.065579e+002,2.999151e+002
2.084864e+002,2.882367e+002
2.104148e+002,2.724497e+002
2.123433e+002,2.528343e+002
2.142718e+002,2.260173e+002
2.162002e+002,1.992891e+002
2.181287e+002,1.751206e+002
2.200572e+002,1.532312e+002
2.219856e+002,1.354620e+002
2.239141e+002,1.223820e+002
2.258426e+002,1.137426e+002
2.277710e+002,1.074954e+002
2.296995e+002,1.056604e+002
2.316280e+002,1.042619e+002
2.335564e+002,1.013544e+002
2.354849e+002,9.380073e+001
2.374134e+002,8.915261e+001
2.393418e+002,8.988333e+001
2.412703e+002,9.361004e+001
2.431988e+002,9.507885e+001
2.451272e+002,9.182495e+001
2.470557e+002,8.756947e+001
2.489842e+002,8.374174e+001
2.509126e+002,7.977402e+001
2.528411e+002,7.742911e+001
2.547696e+002,7.874737e+001
2.566980e+002,8.216875e+001
2.586265e+002,8.351921e+001
2.605550e+002,7.976086e+001
2.624834e+002,7.595759e+001
2.644119e+002,7.540222e+001
2.663404e+002,7.912923e+001
2.682688e+002,8.156845e+001
2.701973e+002,8.031001e+001
2.721258e+002,7.632691e+001
2.740542e+002,7.380701e+001
2.759827e+002,7.271877e+001
2.779112e+002,7.289214e+001
2.798396e+002,7.462539e+001
2.817681e+002,7.803201e+001
2.836966e+002,8.161378e+001
2.856250e+002,8.525498e+001
2.875535e+002,8.887193e+001
2.894820e+002,9.197283e+001
2.914104e+002,9.496931e+001
2.933389e+002,9.733827e+001
2.952674e+002,9.807598e+001
2.971958e+002,9.615079e+001
2.991243e+002,9.737773e+001
3.010528e+002,1.044241e+002
3.029813e+002,1.153437e+002
3.049097e+002,1.240992e+002
3.068382e+002,1.309519e+002
3.087667e+002,1.353096e+002
3.106951e+002,1.367163e+002
3.126236e+002,1.342068e+002
3.145521e+002,1.315267e+002
3.164805e+002,1.293595e+002
3.184090e+002,1.272735e+002
3.203375e+002,1.242679e+002
3.222659e+002,1.191926e+002
3.241944e+002,1.150096e+002
3.261229e+002,1.131296e+002
3.280513e+002,1.152287e+002
3.299798e+002,1.152927e+002
3.319083e+002,1.088741e+002
3.338367e+002,1.020160e+002
3.357652e+002,1.026974e+002
3.376937e+002,1.149141e+002
3.396221e+002,1.281975e+002
3.415506e+002,1.399068e+002
3.434791e+002,1.501213e+002
3.454075e+002,1.565957e+002
3.473360e+002,1.542036e+002
3.492645e+002,1.511228e+002
3.511929e+002,1.550248e+002
3.531214e+002,1.718820e+002
3.550499e+002,1.843314e+002
3.569783e+002,1.877393e+002
3.589068e+002,1.818883e+002
3.608353e+002,1.746051e+002
3.627637e+002,1.642665e+002
3.646922e+002,1.538184e+002
3.666207e+002,1.449866e+002
3.685491e+002,1.384754e+002
3.704776e+002,1.322621e+002
3.724061e+002,1.266336e+002
3.743345e+002,1.211582e+002
3.762630e+002,1.141921e+002
3.781915e+002,1.027273e+002
3.801199e+002,9.330949e+001
3.820484e+002,8.917821e+001
3.839769e+002,9.354709e+001
3.859053e+002,9.551376e+001
3.878338e+002,9.130540e+001
3.897623e+002,8.528465e+001
3.916907e+002,8.483537e+001
3.936192e+002,9.426102e+001
3.955477e+002,1.016508e+002
3.974761e+002,1.016399e+002
3.994046e+002,9.197483e+001
4.013331e+002,8.812704e+001
4.032615e+002,9.588126e+001
4.051900e+002,1.054854e+002
4.071185e+002,1.085012e+002
4.090469e+002,1.026372e+002
4.109754e+002,9.758741e+001
4.129039e+002,9.612113e+001
4.148323e+002,9.768931e+001
4.167608e+002,9.867402e+001
4.186893e+002,9.739630e+001
4.206177e+002,9.697133e+001
4.225462e+002,9.971052e+001
4.244747e+002,1.064025e+002
4.264032e+002,1.104730e+002
4.283316e+002,1.085505e+002
4.302601e+002,1.040770e+002
4.321886e+002,1.028647e+002
4.341170e+002,1.058289e+002
4.360455e+002,1.099849e+002
4.379740e+002,1.144670e+002
4.399024e+002,1.192724e+002
4.418309e+002,1.250624e+002
4.437594e+002,1.322948e+002
4.456878e+002,1.401776e+002
4.476163e+002,1.476188e+002
4.495448e+002,1.533974e+002
4.514732e+002,1.625363e+002
4.534017e+002,1.801892e+002
4.553302e+002,2.020993e+002
4.572586e+002,2.187903e+002
4.591871e+002,2.327236e+002
4.611156e+002,2.391238e+002
4.630440e+002,2.325852e+002
4.649725e+002,2.134773e+002
4.669010e+002,1.969499e+002
4.688294e+002,1.863317e+002
4.707579e+002,1.782011e+002
4.726864e+002,1.699186e+002
4.746148e+002,1.620493e+002
4.765433e+002,1.530847e+002
4.784718e+002,1.395904e+002
4.804002e+002,1.249671e+002
4.823287e+002,1.176994e+002
4.842572e+002,1.242806e+002
4.861856e+002,1.306557e+002
4.881141e+002,1.301147e+002
4.900426e+002,1.192597e+002
4.919710e+002,1.135842e+002
4.938995e+002,1.165326e+002
4.958280e+002,1.225349e+002
4.977564e+002,1.263636e+002
4.996849e+002,1.269713e+002
5.016134e+002,1.285799e+002
5.035418e+002,1.330615e+002
5.054703e+002,1.395241e+002
5.073988e+002,1.442694e+002
5.093272e+002,1.436469e+002
5.112557e+002,1.449338e+002
5.131842e+002,1.545706e+002
5.151127e+002,1.719920e+002
5.170411e+002,1.803182e+002
5.189696e+002,1.689370e+002
5.208981e+002,1.521901e+002
5.228265e+002,1.411892e+002
5.247550e+002,1.381312e+002
5.266835e+002,1.363244e+002
5.286119e+002,1.365921e+002
5.305404e+002,1.373540e+002
5.324689e+002,1.356447e+002
5.343973e+002,1.277351e+002
5.363258e+002,1.214526e+002
5.382543e+002,1.192441e+002
5.401827e+002,1.215332e+002
5.421112e+002,1.247484e+002
5.440397e+002,1.326676e+002
5.459681e+002,1.381989e+002
5.478966e+002,1.361079e+002
5.498251e+002,1.225039e+002
5.517535e+002,1.144715e+002
5.536820e+002,1.178626e+002
5.556105e+002,1.264235e+002
5.575389e+002,1.300184e+002
5.594674e+002,1.272188e+002
5.613959e+002,1.236526e+002
5.633243e+002,1.207454e+002
5.652528e+002,1.183979e+002
5.671813e+002,1.163248e+002
5.691097e+002,1.137477e+002
5.710382e+002,1.120465e+002
5.729667e+002,1.113681e+002
5.748951e+002,1.116406e+002
5.768236e+002,1.146219e+002
5.787521e+002,1.226364e+002
5.806805e+002,1.321267e+002
5.826090e+002,1.401920e+002
5.845375e+002,1.455140e+002
5.864659e+002,1.518430e+002
5.883944e+002,1.581640e+002
5.903229e+002,1.660189e+002
5.922513e+002,1.790680e+002
5.941798e+002,2.014036e+002
5.961083e+002,2.205955e+002
5.980367e+002,2.331570e+002
5.999652e+002,2.395774e+002
6.018937e+002,2.401243e+002
6.038221e+002,2.209438e+002
6.057506e+002,2.083518e+002
6.076791e+002,2.196864e+002
6.096075e+002,2.551013e+002
6.115360e+002,2.815764e+002
6.134645e+002,2.974269e+002
6.153929e+002,2.997638e+002
6.173214e+002,2.853464e+002
6.192499e+002,2.413086e+002
6.211783e+002,2.045732e+002
6.231068e+002,1.789752e+002
6.250353e+002,1.615410e+002
6.269637e+002,1.474392e+002
6.288922e+002,1.361651e+002
6.308207e+002,1.288216e+002
6.327491e+002,1.285440e+002
6.346776e+002,1.330887e+002
6.366061e+002,1.330644e+002
6.385345e+002,1.205164e+002
6.404630e+002,1.111642e+002
6.423915e+002,1.119523e+002
6.443199e+002,1.217967e+002
6.462484e+002,1.298400e+002
6.481769e+002,1.355181e+002
6.501053e+002,1.386974e+002
6.520338e+002,1.386286e+002
6.539623e+002,1.326896e+002
6.558907e+002,1.314468e+002
6.578192e+002,1.395778e+002
6.597477e+002,1.494585e+002
6.616761e+002,1.527644e+002
6.636046e+002,1.479593e+002
6.655331e+002,1.456648e+002
6.674615e+002,1.503999e+002
6.693900e+002,1.586115e+002
6.713185e+002,1.660000e+002
6.732469e+002,1.754445e+002
6.751754e+002,1.804836e+002
6.771039e+002,1.773275e+002
6.790323e+002,1.690893e+002
6.809608e+002,1.646919e+002
6.828893e+002,1.669353e+002
6.848177e+002,1.682050e+002
6.867462e+002,1.642331e+002
6.886747e+002,1.553658e+002
6.906031e+002,1.505219e+002
6.925316e+002,1.550777e+002
6.944601e+002,1.584062e+002
6.963885e+002,1.539819e+002
6.983170e+002,1.424826e+002
7.002455e+002,1.358428e+002
7.021740e+002,1.382419e+002
7.041024e+002,1.432333e+002
7.060309e+002,1.476618e+002
7.079594e+002,1.523654e+002
7.098878e+002,1.532890e+002
7.118163e+002,1.461404e+002
7.137448e+002,1.381036e+002
7.156732e+002,1.362304e+002
7.176017e+002,1.410472e+002
7.195302e+002,1.460338e+002
7.214586e+002,1.498144e+002
7.233871e+002,1.532449e+002
7.253156e+002,1.569341e+002
7.272440e+002,1.593439e+002
7.291725e+002,1.650660e+002
7.311010e+002,1.734317e+002
7.330294e+002,1.856443e+002
7.349579e+002,2.058727e+002
7.368864e+002,2.408993e+002
7.388149e+002,2.669117e+002
7.407433e+002,2.738163e+002
7.426718e+002,2.664428e+002
7.446003e+002,2.534890e+002
7.465287e+002,2.279089e+002
7.484572e+002,2.050085e+002
7.503857e+002,1.881061e+002
7.523141e+002,1.765811e+002
7.542426e+002,1.663280e+002
7.561711e+002,1.555421e+002
7.580995e+002,1.487571e+002
7.600280e+002,1.499850e+002
7.619565e+002,1.575125e+002
7.638849e+002,1.625900e+002
7.658134e+002,1.601079e+002
7.677419e+002,1.595217e+002
7.696703e+002,1.650490e+002
7.715988e+002,1.766921e+002
7.735273e+002,1.857726e+002
7.754557e+002,1.930281e+002
7.773842e+002,1.968333e+002
7.793127e+002,1.953132e+002
7.812411e+002,1.889411e+002
7.831696e+002,1.833316e+002
7.850981e+002,1.776413e+002
7.870266e+002,1.742487e+002
7.889550e+002,1.744061e+002
7.908835e+002,1.786409e+002
7.928120e+002,1.847820e+002
7.947404e+002,1.911910e+002
7.966689e+002,2.010526e+002
7.985974e+002,2.142746e+002
8.005258e+002,2.304876e+002
8.024543e+002,2.570974e+002
8.043828e+002,3.005391e+002
8.063112e+002,3.508209e+002
8.082397e+002,4.056216e+002
8.101682e+002,4.696659e+002
8.120966e+002,5.193252e+002
8.140251e+002,5.530949e+002
8.159536e+002,5.732841e+002
8.178820e+002,5.786443e+002
8.198105e+002,5.694535e+002
8.217390e+002,5.606025e+002
8.236674e+002,5.663676e+002
8.255959e+002,5.649699e+002
8.275244e+002,5.416954e+002
8.294528e+002,4.872833e+002
8.313813e+002,4.325827e+002
8.333098e+002,3.666855e+002
8.352382e+002,3.074781e+002
8.371667e+002,2.711416e+002
8.390952e+002,2.571527e+002
8.410236e+002,2.485919e+002
8.429521e+002,2.458092e+002
8.448806e+002,2.449186e+002
8.468090e+002,2.442397e+002
8.487375e+002,2.461671e+002
8.506660e+002,2.414906e+002
8.525944e+002,2.251302e+002
8.545229e+002,2.062796e+002
8.564514e+002,1.913517e+002
8.583798e+002,1.802191e+002
8.603083e+002,1.722750e+002
8.622368e+002,1.698368e+002
8.641652e+002,1.686443e+002
8.660937e+002,1.650443e+002
8.680222e+002,1.575367e+002
8.699506e+002,1.548466e+002
8.718791e+002,1.625169e+002
8.738076e+002,1.707121e+002
8.757360e+002,1.723220e+002
8.776645e+002,1.663364e+002
8.795930e+002,1.625038e+002
8.815214e+002,1.615387e+002
8.834499e+002,1.629468e+002
8.853784e+002,1.676960e+002
8.873068e+002,1.759192e+002
8.892353e+002,1.807908e+002
8.911638e+002,1.761268e+002
8.930922e+002,1.725193e+002
8.950207e+002,1.757890e+002
8.969492e+002,1.870293e+002
8.988776e+002,1.955780e+002
9.008061e+002,1.993594e+002
9.027346e+002,2.024351e+002
9.046630e+002,2.084016e+002
9.065915e+002,2.160880e+002
9.085200e+002,2.185123e+002
9.104484e+002,2.130362e+002
9.123769e+002,2.047875e+002
9.143054e+002,1.942629e+002
9.162338e+002,1.817493e+002
9.181623e+002,1.735493e+002
9.200908e+002,1.706871e+002
9.220192e+002,1.703764e+002
9.239477e+002,1.738637e+002
9.258762e+002,1.794711e+002
9.278046e+002,1.811415e+002
9.297331e+002,1.755300e+002
9.316616e+002,1.715011e+002
9.335900e+002,1.723816e+002
9.355185e+002,1.772493e+002
9.374470e+002,1.839343e+002
9.393754e+002,1.949791e+002
9.413039e+002,2.045558e+002
9.432324e+002,2.138070e+002
9.451608e+002,2.207276e+002
9.470893e+002,2.201967e+002
9.490178e+002,2.095290e+002
9.509462e+002,2.003213e+002
9.528747e+002,1.958721e+002
9.548032e+002,1.941614e+002
9.567316e+002,1.929251e+002
9.586601e+002,1.920201e+002
9.605886e+002,1.920615e+002
9.625170e+002,1.902303e+002
9.644455e+002,1.911281e+002
9.663740e+002,1.989516e+002
9.683024e+002,2.153952e+002
9.702309e+002,2.355915e+002
9.721594e+002,2.574518e+002
9.740878e+002,2.847186e+002
9.760163e+002,3.176859e+002
9.779448e+002,3.562873e+002
9.798733e+002,4.096847e+002
9.818018e+002,4.749761e+002
9.837302e+002,5.618980e+002
9.856587e+002,6.699336e+002
9.875872e+002,7.982309e+002
9.895156e+002,9.642502e+002
9.914441e+002,1.242608e+003
9.933726e+002,1.473387e+003
9.953010e+002,1.635972e+003
9.972295e+002,1.711489e+003
9.991580e+002,1.641997e+003
1.001086e+003,1.366941e+003
1.003015e+003,1.079390e+003
1.004943e+003,8.127079e+002
1.006872e+003,5.834152e+002
1.008800e+003,4.256616e+002
1.010729e+003,3.581763e+002
1.012657e+003,3.204514e+002
1.014586e+003,3.030302e+002
1.016514e+003,3.056141e+002
1.018443e+003,3.307426e+002
1.020371e+003,3.900220e+002
1.022300e+003,4.442792e+002
1.024228e+003,5.050135e+002
1.026156e+003,5.507311e+002
1.028085e+003,5.655354e+002
1.030013e+003,5.519269e+002
1.031942e+003,5.172599e+002
1.033870e+003,4.456974e+002
1.035799e+003,3.737763e+002
1.037727e+003,3.158934e+002
1.039656e+003,2.717332e+002
1.041584e+003,2.353409e+002
1.043513e+003,2.052954e+002
1.045441e+003,1.849220e+002
1.047370e+003,1.787839e+002
1.049298e+003,1.826415e+002
1.051227e+003,1.873351e+002
1.053155e+003,1.939852e+002
1.055083e+003,1.984992e+002
1.057012e+003,1.986641e+002
1.058940e+003,1.968861e+002
1.060869e+003,1.951749e+002
1.062797e+003,1.933490e+002
1.064726e+003,1.925872e+002
1.066654e+003,1.939037e+002
1.068583e+003,1.954951e+002
1.070511e+003,1.967771e+002
1.072440e+003,1.978352e+002
1.074368e+003,1.969067e+002
1.076297e+003,1.903997e+002
1.078225e+003,1.862551e+002
1.080154e+003,1.900782e+002
1.082082e+003,1.984121e+002
1.084010e+003,2.011290e+002
1.085939e+003,1.963904e+002
1.087867e+003,1.910665e+002
1.089796e+003,1.861921e+002
1.091724e+003,1.824115e+002
1.093653e+003,1.805867e+002
1.095581e+003,1.807507e+002
1.097510e+003,1.825083e+002
1.099438e+003,1.863862e+002
1.101367e+003,1.911156e+002
1.103295e+003,1.969277e+002
1.105224e+003,2.041617e+002
1.107152e+003,2.075056e+002
1.109081e+003,2.021257e+002
1.111009e+003,1.985947e+002
1.112938e+003,2.012740e+002
1.114866e+003,2.085917e+002
1.116794e+003,2.175743e+002
1.118723e+003,2.300295e+002
1.120651e+003,2.385747e+002
1.122580e+003,2.385480e+002
1.124508e+003,2.345980e+002
1.126437e+003,2.310032e+002
1.128365e+003,2.277728e+002
1.130294e+003,2.250424e+002
1.132222e+003,2.196687e+002
1.134151e+003,2.178685e+002
1.136079e+003,2.238000e+002
1.138008e+003,2.373270e+002
1.139936e+003,2.525738e+002
1.141865e+003,2.713645e+002
1.143793e+003,2.888933e+002
1.145721e+003,3.049350e+002
1.147650e+003,3.179117e+002
1.149578e+003,3.257549e+002
1.151507e+003,3.280246e+002
1.153435e+003,3.267110e+002
1.155364e+003,3.194539e+002
1.157292e+003,3.112346e+002
1.159221e+003,3.052384e+002
1.161149e+003,3.018697e+002
1.163078e+003,2.987349e+002
1.165006e+003,2.917621e+002
1.166935e+003,2.898521e+002
1.168863e+003,2.960451e+002
1.170792e+003,3.093630e+002
1.172720e+003,3.288305e+002
1.174648e+003,3.595825e+002
1.176577e+003,3.823639e+002
1.178505e+003,3.909762e+002
1.180434e+003,3.913370e+002
1.182362e+003,3.885461e+002
1.184291e+003,3.825926e+002
1.186219e+003,3.706221e+002
1.188148e+003,3.381293e+002
1.190076e+003,3.199109e+002
1.192005e+003,3.295208e+002
1.193933e+003,3.636971e+002
1.195862e+003,4.119723e+002
1.197790e+003,4.825592e+002
1.199719e+003,5.549946e+002
1.201647e+003,6.446124e+002
1.203575e+003,7.231975e+002
1.205504e+003,7.658176e+002
1.207432e+003,7.693031e+002
1.209361e+003,7.467113e+002
1.211289e+003,6.841293e+002
1.213218e+003,6.124118e+002
1.215146e+003,5.366941e+002
1.217075e+003,4.627745e+002
1.219003e+003,4.019367e+002
1.220932e+003,3.559655e+002
1.222860e+003,3.177508e+002
1.224789e+003,2.851762e+002
1.226717e+003,2.601495e+002
1.228646e+003,2.467077e+002
1.230574e+003,2.462797e+002
1.232502e+003,2.420837e+002
1.234431e+003,2.283013e+002
1.236359e+003,2.168330e+002
1.238288e+003,2.114938e+002
1.240216e+003,2.104717e+002
1.242145e+003,2.100935e+002
1.244073e+003,2.098555e+002
1.246002e+003,2.117520e+002
1.247930e+003,2.196412e+002
1.249859e+003,2.266218e+002
1.251787e+003,2.265043e+002
1.253716e+003,2.212171e+002
1.255644e+003,2.195777e+002
1.257573e+003,2.245342e+002
1.259501e+003,2.276088e+002
1.261429e+003,2.217612e+002
1.263358e+003,2.145105e+002
1.265286e+003,2.151994e+002
1.267215e+003,2.253732e+002
1.269143e+003,2.332888e+002
1.271072e+003,2.356541e+002
1.273000e+003,2.374217e+002
1.274929e+003,2.388863e+002
1.276857e+003,2.410989e+002
1.278786e+003,2.475549e+002
1.280714e+003,2.590386e+002
1.282643e+003,2.739242e+002
1.284571e+003,2.965707e+002
1.286500e+003,3.192586e+002
1.288428e+003,3.337618e+002
1.290356e+003,3.412301e+002
1.292285e+003,3.558740e+002
1.294213e+003,3.807966e+002
1.296142e+003,4.077535e+002
1.298070e+003,4.430752e+002
1.299999e+003,4.731838e+002
1.301927e+003,4.814036e+002
1.303856e+003,4.664614e+002
1.305784e+003,4.481951e+002
1.307713e+003,4.257365e+002
1.309641e+003,4.057188e+002
1.311570e+003,3.918570e+002
1.313498e+003,3.823930e+002
1.315427e+003,3.724394e+002
1.317355e+003,3.610243e+002
1.319283e+003,3.513857e+002
1.321212e+003,3.405738e+002
1.323140e+003,3.344107e+002
1.325069e+003,3.394788e+002
1.326997e+003,3.543005e+002
1.328926e+003,3.628695e+002
1.330854e+003,3.616771e+002
1.332783e+003,3.603092e+002
1.334711e+003,3.634008e+002
1.336640e+003,3.647921e+002
1.338568e+003,3.569274e+002
1.340497e+003,3.407497e+002
1.342425e+003,3.259958e+002
1.344354e+003,3.123611e+002
1.346282e+003,3.022103e+002
1.348210e+003,2.991953e+002
1.350139e+003,2.987480e+002
1.352068e+003,2.956646e+002
1.353996e+003,2.898192e+002
1.355924e+003,2.825842e+002
1.357853e+003,2.710105e+002
1.359781e+003,2.625344e+002
1.361710e+003,2.627277e+002
1.363638e+003,2.671009e+002
1.365567e+003,2.663046e+002
1.367495e+003,2.578096e+002
1.369424e+003,2.511980e+002
1.371352e+003,2.466165e+002
1.373281e+003,2.445125e+002
1.375209e+003,2.453125e+002
1.377138e+003,2.488323e+002
1.379066e+003,2.548835e+002
1.380995e+003,2.680434e+002
1.382923e+003,2.745474e+002
1.384851e+003,2.669016e+002
1.386780e+003,2.583647e+002
1.388708e+003,2.556234e+002
1.390637e+003,2.587898e+002
1.392565e+003,2.671965e+002
1.394494e+003,2.811609e+002
1.396422e+003,2.993631e+002
1.398351e+003,3.274309e+002
1.400279e+003,3.543935e+002
1.402208e+003,3.748962e+002
1.404136e+003,3.882368e+002
1.406065e+003,3.903748e+002
1.407993e+003,3.796897e+002
1.409922e+003,3.617193e+002
1.411850e+003,3.291730e+002
1.413778e+003,2.980383e+002
1.415707e+003,2.787528e+002
1.417635e+003,2.709717e+002
1.419564e+003,2.701671e+002
1.421492e+003,2.788239e+002
1.423421e+003,2.897869e+002
1.425349e+003,3.010974e+002
1.427278e+003,3.143839e+002
1.429206e+003,3.330259e+002
1.431135e+003,3.567104e+002
1.433063e+003,3.729025e+002
1.434992e+003,3.800711e+002
1.436920e+003,3.810431e+002
1.438849e+003,3.752493e+002
1.440777e+003,3.641850e+002
1.442705e+003,3.464968e+002
1.444634e+003,3.229310e+002
1.446562e+003,3.058663e+002
1.448491e+003,2.983300e+002
1.450419e+003,2.916070e+002
1.452348e+003,2.825106e+002
1.454276e+003,2.749697e+002
1.456205e+003,2.726677e+002
1.458133e+003,2.749936e+002
1.460062e+003,2.789462e+002
1.461990e+003,2.863477e+002
1.463919e+003,2.900362e+002
1.465847e+003,2.834775e+002
1.467776e+003,2.764989e+002
1.469704e+003,2.761179e+002
1.471632e+003,2.812249e+002
1.473561e+003,2.889622e+002
1.475489e+003,3.003631e+002
1.477418e+003,3.102470e+002
1.479346e+003,3.167183e+002
1.481275e+003,3.216079e+002
1.483203e+003,3.270340e+002
1.485132e+003,3.318271e+002
1.487060e+003,3.312595e+002
1.488989e+003,3.234344e+002
1.490917e+003,3.162103e+002
1.492846e+003,3.129222e+002
1.494774e+003,3.089342e+002
1.496703e+003,3.010179e+002
1.498631e+003,2.908930e+002
1.500559e+003,2.834791e+002
1.502488e+003,2.791261e+002
1.504416e+003,2.764946e+002
1.506345e+003,2.757216e+002
1.508273e+003,2.761295e+002
1.510202e+003,2.778384e+002
1.512130e+003,2.803777e+002
1.514059e+003,2.826234e+002
1.515987e+003,2.835440e+002
1.517916e+003,2.877541e+002
1.519844e+003,3.015869e+002
1.521773e+003,3.107298e+002
1.523701e+003,3.068546e+002
1.525630e+003,2.981337e+002
1.527558e+003,2.962677e+002
1.529486e+003,3.025251e+002
1.531415e+003,3.025403e+002
1.533343e+003,2.899784e+002
1.535272e+003,2.796986e+002
1.537200e+003,2.755662e+002
1.539129e+003,2.742473e+002
1.541057e+003,2.724926e+002
1.542986e+003,2.708260e+002
1.544914e+003,2.732208e+002
1.546843e+003,2.833848e+002
1.548771e+003,2.884415e+002
1.550700e+003,2.804817e+002
1.552628e+003,2.718734e+002
1.554557e+003,2.702700e+002
1.556485e+003,2.739372e+002
1.558413e+003,2.783669e+002
1.560342e+003,2.834859e+002
1.562270e+003,2.889439e+002
1.564199e+003,2.938252e+002
1.566127e+003,3.001077e+002
1.568056e+003,3.076854e+002
1.569984e+003,3.179626e+002
1.571913e+003,3.321409e+002
1.573841e+003,3.502945e+002
1.575770e+003,3.755913e+002
1.577698e+003,4.157958e+002
1.579627e+003,4.459532e+002
1.581555e+003,4.529276e+002
1.583484e+003,4.496526e+002
1.585412e+003,4.397253e+002
1.587340e+003,4.278654e+002
1.589269e+003,4.366206e+002
1.591197e+003,4.729103e+002
1.593126e+003,5.054994e+002
1.595054e+003,5.254765e+002
1.596983e+003,5.420097e+002
1.598911e+003,5.669996e+002
1.600840e+003,5.892844e+002
1.602768e+003,5.849573e+002
1.604697e+003,5.520891e+002
1.606625e+003,5.158370e+002
1.608554e+003,4.762249e+002
1.610482e+003,4.389070e+002
1.612411e+003,4.012970e+002
1.614339e+003,3.706418e+002
1.616267e+003,3.557292e+002
1.618196e+003,3.549028e+002
1.620124e+003,3.539047e+002
1.622053e+003,3.533842e+002
1.623981e+003,3.501389e+002
1.625910e+003,3.398604e+002
1.627838e+003,3.305576e+002
1.629767e+003,3.267964e+002
1.631695e+003,3.260388e+002
1.633624e+003,3.237457e+002
1.635552e+003,3.197547e+002
1.637481e+003,3.148345e+002
1.639409e+003,3.080921e+002
1.641338e+003,3.021726e+002
1.643266e+003,2.980580e+002
1.645194e+003,2.948808e+002
1.647123e+003,2.915209e+002
1.649051e+003,2.883410e+002
1.650980e+003,2.881737e+002
1.652908e+003,2.936786e+002
1.654837e+003,2.939042e+002
1.656765e+003,2.798598e+002
1.658694e+003,2.695979e+002
1.660622e+003,2.722837e+002
1.662551e+003,2.802850e+002
1.664479e+003,2.847422e+002
1.666408e+003,2.857660e+002
1.668336e+003,2.842575e+002
1.670265e+003,2.785453e+002
1.672193e+003,2.740492e+002
1.674121e+003,2.714751e+002
1.676050e+003,2.702780e+002
1.677978e+003,2.711359e+002
1.679907e+003,2.726608e+002
1.681835e+003,2.710601e+002
1.683764e+003,2.642840e+002
1.685692e+003,2.640892e+002
1.687621e+003,2.780168e+002
1.689549e+003,2.869597e+002
1.691478e+003,2.840437e+002
1.693406e+003,2.782325e+002
1.695335e+003,2.754888e+002
1.697263e+003,2.751505e+002
1.699192e+003,2.748936e+002
1.701120e+003,2.748957e+002
1.703048e+003,2.743755e+002
1.704977e+003,2.710392e+002
1.706905e+003,2.700038e+002
1.708834e+003,2.757548e+002
1.710762e+003,2.812664e+002
1.712691e+003,2.788808e+002
1.714619e+003,2.706001e+002
1.716548e+003,2.673875e+002
1.718476e+003,2.711004e+002
1.720405e+003,2.742810e+002
1.722333e+003,2.773365e+002
1.724262e+003,2.785504e+002
1.726190e+003,2.753306e+002
1.728119e+003,2.716241e+002
1.730047e+003,2.716697e+002
1.731975e+003,2.748054e+002
1.733904e+003,2.761066e+002
1.735832e+003,2.744747e+002
1.737761e+003,2.748440e+002
1.739689e+003,2.806502e+002
1.741618e+003,2.846586e+002
1.743546e+003,2.826172e+002
1.745475e+003,2.791981e+002
1.747403e+003,2.788831e+002
1.749332e+003,2.812732e+002
1.751260e+003,2.843859e+002
1.753189e+003,2.893514e+002
1.755117e+003,2.898676e+002
1.757046e+003,2.811437e+002
1.758974e+003,2.743417e+002
1.760902e+003,2.752459e+002
1.762831e+003,2.785552e+002
1.764759e+003,2.793560e+002
1.766688e+003,2.783968e+002
1.768616e+003,2.790920e+002
1.770545e+003,2.816183e+002
1.772473e+003,2.842508e+002
1.774402e+003,2.867089e+002
1.776330e+003,2.888512e+002
1.778259e+003,2.911866e+002
1.780187e+003,2.925577e+002
1.782116e+003,2.918593e+002
1.784044e+003,2.896095e+002
1.785973e+003,2.861474e+002
1.787901e+003,2.812143e+002
1.789829e+003,2.817578e+002
1.791758e+003,2.921330e+002
1.793686e+003,3.000279e+002
1.795615e+003,3.001044e+002
1.797543e+003,2.974424e+002
1.799472e+003,2.945016e+002
1.801400e+003,2.917819e+002
1.803329e+003,2.905114e+002
1.805257e+003,2.906096e+002
1.807186e+003,2.898712e+002
1.809114e+003,2.872822e+002
1.811043e+003,2.861337e+002
1.812971e+003,2.884888e+002
1.814900e+003,2.911373e+002
1.816828e+003,2.933491e+002
1.818756e+003,2.942287e+002
1.820685e+003,2.905110e+002
1.822613e+003,2.834033e+002
1.824542e+003,2.838310e+002
1.826470e+003,2.960037e+002
1.828399e+003,3.016227e+002
1.830327e+003,2.905374e+002
1.832256e+003,2.820298e+002
1.834184e+003,2.862693e+002
1.836113e+003,2.934724e+002
1.838041e+003,2.932621e+002
1.839970e+003,2.883033e+002
1.841898e+003,2.886860e+002
1.843827e+003,2.971237e+002
1.845755e+003,3.012173e+002
1.847684e+003,2.965965e+002
1.849612e+003,2.939460e+002
1.851541e+003,2.975140e+002
1.853469e+003,3.007260e+002
1.855397e+003,2.968469e+002
1.857326e+003,2.911526e+002
1.859254e+003,2.938189e+002
1.861183e+003,3.049838e+002
1.863111e+003,3.117234e+002
1.865040e+003,3.124443e+002
1.866968e+003,3.124920e+002
1.868897e+003,3.119856e+002
1.870825e+003,3.114456e+002
1.872754e+003,3.120609e+002
1.874682e+003,3.118467e+002
1.876611e+003,3.069662e+002
1.878539e+003,3.002850e+002
1.880468e+003,3.021600e+002
1.882396e+003,3.135043e+002
1.884324e+003,3.163088e+002
1.886253e+003,3.052847e+002
1.888181e+003,2.973743e+002
1.890110e+003,2.969873e+002
1.892038e+003,2.998590e+002
1.893967e+003,3.058285e+002
1.895895e+003,3.123553e+002
1.897824e+003,3.191467e+002
1.899752e+003,3.242000e+002
1.901681e+003,3.183564e+002
1.903609e+003,3.005001e+002
1.905538e+003,2.915331e+002
1.907466e+003,2.970967e+002
1.909395e+003,3.037791e+002
1.911323e+003,3.102605e+002
1.913251e+003,3.136882e+002
1.915180e+003,3.092055e+002
1.917108e+003,3.028992e+002
1.919037e+003,3.041183e+002
1.920965e+003,3.110519e+002
1.922894e+003,3.122824e+002
1.924822e+003,3.054136e+002
1.926751e+003,3.022320e+002
1.928679e+003,3.035103e+002
1.930608e+003,3.081214e+002
1.932536e+003,3.215200e+002
1.934465e+003,3.317513e+002
1.936393e+003,3.309855e+002
1.938322e+003,3.236768e+002
1.940250e+003,3.121658e+002
1.942178e+003,2.983158e+002
1.944107e+003,2.972034e+002
1.946035e+003,3.129216e+002
1.947964e+003,3.246204e+002
1.949892e+003,3.313765e+002
1.951821e+003,3.339720e+002
1.953749e+003,3.300621e+002
1.955678e+003,3.253952e+002
1.957606e+003,3.224387e+002
1.959535e+003,3.203130e+002
1.961463e+003,3.168557e+002
1.963392e+003,3.134180e+002
1.965320e+003,3.154507e+002
1.967249e+003,3.231375e+002
1.969177e+003,3.290266e+002
1.971105e+003,3.326969e+002
1.973034e+003,3.334765e+002
1.974962e+003,3.296482e+002
1.976891e+003,3.253521e+002
1.978819e+003,3.203042e+002
1.980748e+003,3.176103e+002
1.982676e+003,3.226458e+002
1.984605e+003,3.314340e+002
1.986533e+003,3.341299e+002
1.988462e+003,3.303203e+002
1.990390e+003,3.263995e+002
1.992319e+003,3.189120e+002
1.994247e+003,3.175347e+002
1.996176e+003,3.287924e+002
1.998104e+003,3.372387e+002
2.000032e+003,3.361357e+002
2.001961e+003,3.341227e+002
2.003889e+003,3.362701e+002
2.005818e+003,3.410641e+002
2.007746e+003,3.489874e+002
2.009675e+003,3.581233e+002
2.011603e+003,3.546635e+002
2.013532e+003,3.369530e+002
2.015460e+003,3.283993e+002
2.017389e+003,3.345519e+002
2.019317e+003,3.395907e+002
2.021246e+003,3.387472e+002
2.023174e+003,3.374138e+002
2.025103e+003,3.374037e+002
2.027031e+003,3.387023e+002
2.028959e+003,3.430898e+002
2.030888e+003,3.478759e+002
2.032816e+003,3.464042e+002
2.034745e+003,3.392866e+002
2.036673e+003,3.383024e+002
2.038602e+003,3.484152e+002
2.040530e+003,3.502947e+002
2.042459e+003,3.344698e+002
2.044387e+003,3.245906e+002
2.046316e+003,3.253779e+002
2.048244e+003,3.315536e+002
2.050173e+003,3.476998e+002
2.052101e+003,3.617004e+002
2.054030e+003,3.574012e+002
2.055958e+003,3.439522e+002
2.057886e+003,3.441476e+002
2.059815e+003,3.563896e+002
2.061743e+003,3.636834e+002
2.063672e+003,3.649070e+002
2.065600e+003,3.647208e+002
2.067529e+003,3.636385e+002
2.069457e+003,3.614292e+002
2.071386e+003,3.558568e+002
2.073314e+003,3.522154e+002
2.075243e+003,3.538698e+002
2.077171e+003,3.579750e+002
2.079100e+003,3.638320e+002
2.081028e+003,3.695275e+002
2.082957e+003,3.701965e+002
2.084885e+003,3.663634e+002
2.086813e+003,3.653265e+002
2.088742e+003,3.675706e+002
2.090670e+003,3.709710e+002
2.092599e+003,3.780170e+002
2.094527e+003,3.808767e+002
2.096456e+003,3.756997e+002
2.098384e+003,3.703349e+002
2.100313e+003,3.670012e+002
2.102241e+003,3.652384e+002
2.104170e+003,3.656641e+002
2.106098e+003,3.668683e+002
2.108027e+003,3.659454e+002
2.109955e+003,3.644243e+002
2.111884e+003,3.684919e+002
2.113812e+003,3.781237e+002
2.115740e+003,3.812571e+002
2.117669e+003,3.743291e+002
2.119597e+003,3.705100e+002
2.121526e+003,3.714877e+002
2.123454e+003,3.754711e+002
2.125383e+003,3.882313e+002
2.127311e+003,3.959688e+002
2.129240e+003,3.877900e+002
2.131168e+003,3.754933e+002
2.133097e+003,3.670443e+002
2.135025e+003,3.631057e+002
2.136954e+003,3.670542e+002
2.138882e+003,3.769388e+002
2.140811e+003,3.838132e+002
2.142739e+003,3.876039e+002
2.144667e+003,3.846233e+002
2.146596e+003,3.721180e+002
2.148524e+003,3.648169e+002
2.150453e+003,3.674153e+002
2.152381e+003,3.716804e+002
2.154310e+003,3.767783e+002
2.156238e+003,3.806488e+002
2.158167e+003,3.824261e+002
2.160095e+003,3.824017e+002
2.162024e+003,3.781469e+002
2.163952e+003,3.739492e+002
2.165881e+003,3.793605e+002
2.167809e+003,3.919662e+002
2.169738e+003,3.971649e+002
2.171666e+003,3.947227e+002
2.173594e+003,3.931731e+002
2.175523e+003,3.934374e+002
2.177451e+003,3.906548e+002
2.179380e+003,3.826423e+002
2.181308e+003,3.757411e+002
2.183237e+003,3.712878e+002
2.185165e+003,3.695451e+002
2.187094e+003,3.736682e+002
2.189022e+003,3.774017e+002
2.190951e+003,3.730408e+002
2.192879e+003,3.681400e+002
2.194808e+003,3.753442e+002
2.196736e+003,3.888194e+002
2.198665e+003,3.915341e+002
2.200593e+003,3.837340e+002
2.202521e+003,3.786903e+002
2.204450e+003,3.762517e+002
2.206378e+003,3.794901e+002
2.208307e+003,3.907175e+002
2.210235e+003,3.983126e+002
2.212164e+003,3.997651e+002
2.214092e+003,3.982962e+002
2.216021e+003,3.930445e+002
2.217949e+003,3.878186e+002
2.219878e+003,3.823399e+002
2.221806e+003,3.796510e+002
2.223735e+003,3.846342e+002
2.225663e+003,3.917129e+002
2.227592e+003,3.935875e+002
2.229520e+003,3.915151e+002
2.231448e+003,3.885148e+002
2.233377e+003,3.848371e+002
2.235305e+003,3.827409e+002
2.237234e+003,3.824318e+002
2.239162e+003,3.825685e+002
2.241091e+003,3.831607e+002
2.243019e+003,3.842642e+002
2.244948e+003,3.864125e+002
2.246876e+003,3.876303e+002
2.248805e+003,3.835780e+002
2.250733e+003,3.833850e+002
2.252662e+003,3.939051e+002
2.254590e+003,4.049660e+002
2.256519e+003,4.134703e+002
2.258447e+003,4.164891e+002
2.260375e+003,4.065786e+002
2.262304e+003,3.922874e+002
2.264232e+003,3.884629e+002
2.266161e+003,3.922766e+002
2.268089e+003,3.959651e+002
2.270018e+003,3.991591e+002
2.271946e+003,4.002538e+002
2.273875e+003,3.988567e+002
2.275803e+003,3.975413e+002
2.277732e+003,3.951152e+002
2.279660e+003,3.962978e+002
2.281589e+003,4.054388e+002
2.283517e+003,4.121539e+002
2.285446e+003,4.142227e+002
2.287374e+003,4.145557e+002
2.289302e+003,4.140543e+002
2.291231e+003,4.118960e+002
2.293159e+003,4.062098e+002
2.295088e+003,3.998970e+002
2.297016e+003,3.918184e+002
2.298945e+003,3.873682e+002
2.300873e+003,3.985105e+002
2.302802e+003,4.174860e+002
2.304730e+003,4.252173e+002
2.306659e+003,4.226291e+002
2.308587e+003,4.155482e+002
2.310516e+003,4.022290e+002
2.312444e+003,4.005523e+002
2.314373e+003,4.132283e+002
2.316301e+003,4.215445e+002
2.318229e+003,4.233478e+002
2.320158e+003,4.240014e+002
2.322086e+003,4.256221e+002
2.324015e+003,4.237835e+002
2.325943e+003,4.108210e+002
2.327872e+003,4.032957e+002
2.329800e+003,4.126893e+002
2.331729e+003,4.224759e+002
2.333657e+003,4.210209e+002
2.335586e+003,4.177439e+002
2.337514e+003,4.211082e+002
2.339443e+003,4.267759e+002
2.341371e+003,4.307474e+002
2.343300e+003,4.322498e+002
2.345228e+003,4.281295e+002
2.347156e+003,4.208018e+002
2.349085e+003,4.180695e+002
2.351013e+003,4.198047e+002
2.352942e+003,4.209839e+002
2.354870e+003,4.212361e+002
2.356799e+003,4.245578e+002
2.358727e+003,4.344762e+002
2.360656e+003,4.368456e+002
2.362584e+003,4.273800e+002
2.364513e+003,4.215573e+002
2.366441e+003,4.222649e+002
2.368370e+003,4.249362e+002
2.370298e+003,4.290397e+002
2.372227e+003,4.332877e+002
2.374155e+003,4.374469e+002
2.376083e+003,4.412007e+002
2.378012e+003,4.466077e+002
2.379940e+003,4.490579e+002
2.381869e+003,4.421839e+002
2.383797e+003,4.338182e+002
2.385726e+003,4.328774e+002
2.387654e+003,4.346808e+002
2.389583e+003,4.301190e+002
2.391511e+003,4.246365e+002
2.393440e+003,4.320643e+002
2.395368e+003,4.475895e+002
2.397297e+003,4.531214e+002
2.399225e+003,4.494510e+002
2.401154e+003,4.480023e+002
2.403082e+003,4.485869e+002
2.405010e+003,4.530595e+002
2.406939e+003,4.629524e+002
2.408867e+003,4.689612e+002
2.410796e+003,4.702629e+002
2.412724e+003,4.692466e+002
2.414653e+003,4.642888e+002
2.416581e+003,4.643037e+002
2.418510e+003,4.759554e+002
2.420438e+003,4.834785e+002
2.422367e+003,4.782240e+002
2.424295e+003,4.741453e+002
2.426224e+003,4.764937e+002
2.428152e+003,4.802596e+002
2.430081e+003,4.861794e+002
2.432009e+003,4.895063e+002
2.433938e+003,4.860996e+002
2.435866e+003,4.812435e+002
2.437794e+003,4.798514e+002
2.439723e+003,4.785947e+002
2.441651e+003,4.716222e+002
2.443580e+003,4.637418e+002
2.445508e+003,4.638053e+002
2.447437e+003,4.677972e+002
2.449365e+003,4.668086e+002
2.451294e+003,4.620287e+002
2.453222e+003,4.565999e+002
2.455151e+003,4.516971e+002
2.457079e+003,4.544152e+002
2.459008e+003,4.639695e+002
2.460936e+003,4.675357e+002
2.462865e+003,4.642518e+002
2.464793e+003,4.590051e+002
2.466721e+003,4.490840e+002
2.468650e+003,4.462475e+002
2.470578e+003,4.527628e+002
2.472507e+003,4.559438e+002
2.474435e+003,4.532811e+002
2.476364e+003,4.522971e+002
2.478292e+003,4.545758e+002
2.480221e+003,4.581176e+002
2.482149e+003,4.646607e+002
2.484078e+003,4.690681e+002
2.486006e+003,4.703372e+002
2.487935e+003,4.693394e+002
2.489863e+003,4.643297e+002
2.491792e+003,4.599756e+002
2.493720e+003,4.598340e+002
2.495648e+003,4.576369e+002
2.497577e+003,4.449208e+002
2.499505e+003,4.352720e+002
2.501434e+003,4.419355e+002
2.503362e+003,4.507021e+002
2.505291e+003,4.476436e+002
2.507219e+003,4.431718e+002
2.509148e+003,4.494897e+002
2.511076e+003,4.591888e+002
2.513005e+003,4.639669e+002
2.514933e+003,4.654398e+002
2.516862e+003,4.634914e+002
2.518790e+003,4.614157e+002
2.520719e+003,4.692865e+002
2.522647e+003,4.805878e+002
2.524575e+003,4.737449e+002
2.526504e+003,4.554081e+002
2.528432e+003,4.561360e+002
2.530361e+003,4.711534e+002
2.532289e+003,4.707477e+002
2.534218e+003,4.579745e+002
2.536146e+003,4.558801e+002
2.538075e+003,4.649995e+002
2.540003e+003,4.723545e+002
2.541932e+003,4.783661e+002
2.543860e+003,4.772505e+002
2.545789e+003,4.676628e+002
2.547717e+003,4.603534e+002
2.549646e+003,4.556109e+002
2.551574e+003,4.545044e+002
2.553502e+003,4.576644e+002
2.555431e+003,4.607516e+002
2.557359e+003,4.643365e+002
2.559288e+003,4.639715e+002
2.561216e+003,4.504704e+002
2.563145e+003,4.510264e+002
2.565073e+003,4.740808e+002
2.567002e+003,4.919402e+002
2.568930e+003,5.006200e+002
2.570859e+003,5.016365e+002
2.572787e+003,4.890443e+002
2.574716e+003,4.830049e+002
2.576644e+003,4.966901e+002
2.578573e+003,5.050956e+002
2.580501e+003,4.990856e+002
2.582429e+003,4.907973e+002
2.584358e+003,4.828512e+002
2.586287e+003,4.739766e+002
2.588215e+003,4.603539e+002
2.590144e+003,4.518558e+002
2.592072e+003,4.567915e+002
2.594000e+003,4.629228e+002
2.595929e+003,4.644692e+002
2.597857e+003,4.654344e+002
2.599786e+003,4.682841e+002
2.601714e+003,4.704583e+002
2.603643e+003,4.703249e+002
2.605571e+003,4.691490e+002
2.607500e+003,4.678454e+002
2.609428e+003,4.657041e+002
2.611357e+003,4.578652e+002
2.613285e+003,4.542888e+002
2.615214e+003,4.696373e+002
2.617142e+003,4.856847e+002
2.619071e+003,4.859518e+002
2.620999e+003,4.801870e+002
2.622927e+003,4.734591e+002
2.624856e+003,4.684125e+002
2.626784e+003,4.692297e+002
2.628713e+003,4.717169e+002
2.630641e+003,4.703346e+002
2.632570e+003,4.687151e+002
2.634498e+003,4.740531e+002
2.636427e+003,4.792528e+002
2.638355e+003,4.723975e+002
2.640284e+003,4.630605e+002
2.642212e+003,4.640223e+002
2.644141e+003,4.702468e+002
2.646069e+003,4.756186e+002
2.647998e+003,4.800075e+002
2.649926e+003,4.829489e+002
2.651854e+003,4.849411e+002
2.653783e+003,4.877814e+002
2.655711e+003,4.896784e+002
2.657640e+003,4.869967e+002
2.659568e+003,4.819897e+002
2.661497e+003,4.773642e+002
2.663425e+003,4.743803e+002
2.665354e+003,4.782062e+002
2.667282e+003,4.839509e+002
2.669211e+003,4.771244e+002
2.671139e+003,4.667944e+002
2.673068e+003,4.744155e+002
2.674996e+003,4.897874e+002
2.676925e+003,4.892538e+002
2.678853e+003,4.797713e+002
2.680781e+003,4.782358e+002
2.682710e+003,4.810255e+002
2.684638e+003,4.787644e+002
2.686567e+003,4.742713e+002
2.688495e+003,4.746267e+002
2.690424e+003,4.770063e+002
2.692352e+003,4.718316e+002
2.694281e+003,4.645374e+002
2.696209e+003,4.728699e+002
2.698138e+003,4.886435e+002
2.700066e+003,4.902776e+002
2.701995e+003,4.827385e+002
2.703923e+003,4.748260e+002
2.705852e+003,4.679291e+002
2.707780e+003,4.657737e+002
2.709708e+003,4.672696e+002
2.711637e+003,4.706977e+002
2.713565e+003,4.752998e+002
2.715494e+003,4.798482e+002
2.717422e+003,4.841830e+002
2.719351e+003,4.904490e+002
2.721279e+003,4.949390e+002
2.723208e+003,4.847699e+002
2.725136e+003,4.694532e+002
2.727065e+003,4.705591e+002
2.728993e+003,4.810175e+002
2.730922e+003,4.885983e+002
2.732850e+003,4.938343e+002
2.734779e+003,4.981193e+002
2.736707e+003,5.002202e+002
2.738635e+003,4.939932e+002
2.740564e+003,4.870778e+002
2.742492e+003,4.982901e+002
2.744421e+003,5.140699e+002
2.746349e+003,5.126184e+002
2.748278e+003,5.036174e+002
2.750206e+003,5.001548e+002
2.752135e+003,4.986605e+002
2.754063e+003,4.932846e+002
2.755992e+003,4.871397e+002
2.757920e+003,4.841624e+002
2.759849e+003,4.833360e+002
2.761777e+003,4.856970e+002
2.763706e+003,4.876359e+002
2.765634e+003,4.830865e+002
2.767563e+003,4.782203e+002
2.769491e+003,4.800061e+002
2.771419e+003,4.843801e+002
2.773348e+003,4.871765e+002
2.775276e+003,4.907931e+002
2.777205e+003,5.013215e+002
2.779133e+003,5.084428e+002
2.781062e+003,4.968639e+002
2.782990e+003,4.860759e+002
2.784919e+003,4.960985e+002
2.786847e+003,5.058115e+002
2.788776e+003,5.024277e+002
2.790704e+003,4.937263e+002
2.792633e+003,4.789254e+002
2.794561e+003,4.688326e+002
2.796490e+003,4.727712e+002
2.798418e+003,4.790417e+002
2.800346e+003,4.841916e+002
2.802275e+003,4.877481e+002
2.804203e+003,4.857958e+002
2.806132e+003,4.876625e+002
2.808060e+003,5.023734e+002
2.809989e+003,5.121532e+002
2.811917e+003,5.103367e+002
2.813846e+003,5.053611e+002
2.815774e+003,4.955424e+002
2.817703e+003,4.930880e+002
2.819631e+003,5.105107e+002
2.821560e+003,5.198768e+002
2.823488e+003,5.098334e+002
2.825417e+003,5.098416e+002
2.827345e+003,5.283824e+002
2.829273e+003,5.382419e+002
2.831202e+003,5.289631e+002
2.833130e+003,5.282714e+002
2.835059e+003,5.437165e+002
2.836987e+003,5.566713e+002
2.838916e+003,5.658800e+002
2.840844e+003,5.776501e+002
2.842773e+003,5.931423e+002
2.844701e+003,5.987261e+002
2.846630e+003,5.894809e+002
2.848558e+003,6.002944e+002
2.850487e+003,6.325761e+002
2.852415e+003,6.580805e+002
2.854344e+003,6.753890e+002
2.856272e+003,6.702524e+002
2.858200e+003,6.460630e+002
2.860129e+003,6.341743e+002
2.862057e+003,6.323652e+002
2.863986e+003,6.304675e+002
2.865914e+003,6.272545e+002
2.867843e+003,6.184726e+002
2.869771e+003,6.052235e+002
2.871700e+003,5.868620e+002
2.873628e+003,5.681470e+002
2.875557e+003,5.573263e+002
2.877485e+003,5.531709e+002
2.879414e+003,5.572916e+002
2.881342e+003,5.634865e+002
2.883271e+003,5.615994e+002
2.885199e+003,5.622125e+002
2.887127e+003,5.807387e+002
2.889056e+003,6.005864e+002
2.890984e+003,6.051012e+002
2.892913e+003,6.104853e+002
2.894841e+003,6.256660e+002
2.896770e+003,6.460147e+002
2.898698e+003,6.701429e+002
2.900627e+003,6.967013e+002
2.902555e+003,7.223027e+002
2.904484e+003,7.557356e+002
2.906412e+003,7.967951e+002
2.908341e+003,8.535190e+002
2.910269e+003,9.240779e+002
2.912198e+003,1.021295e+003
2.914126e+003,1.151594e+003
2.916054e+003,1.293814e+003
2.917983e+003,1.453132e+003
2.919911e+003,1.571870e+003
2.921840e+003,1.645606e+003
2.923768e+003,1.654515e+003
2.925697e+003,1.596175e+003
2.927625e+003,1.481374e+003
2.929554e+003,1.320551e+003
2.931482e+003,1.235011e+003
2.933411e+003,1.218796e+003
2.935339e+003,1.201894e+003
2.937268e+003,1.184948e+003
2.939196e+003,1.169791e+003
2.941125e+003,1.158670e+003
2.943053e+003,1.163526e+003
2.944981e+003,1.170819e+003
2.946910e+003,1.164237e+003
2.948838e+003,1.141000e+003
2.950767e+003,1.080947e+003
2.952695e+003,1.022546e+003
2.954624e+003,9.881745e+002
2.956552e+003,9.829598e+002
2.958481e+003,1.023376e+003
2.960409e+003,1.075330e+003
2.962338e+003,1.150099e+003
2.964266e+003,1.179425e+003
2.966195e+003,1.124624e+003
2.968123e+003,1.056083e+003
2.970052e+003,9.804761e+002
2.971980e+003,9.270971e+002
2.973908e+003,9.022914e+002
2.975837e+003,8.892791e+002
2.977765e+003,8.882273e+002
2.979694e+003,8.833411e+002
2.981622e+003,8.749061e+002
2.983551e+003,8.440821e+002
2.985479e+003,7.905410e+002
2.987408e+003,7.497252e+002
2.989336e+003,7.210960e+002
2.991265e+003,6.973339e+002
2.993193e+003,6.795027e+002
2.995122e+003,6.710595e+002
2.997050e+003,6.727047e+002
2.998979e+003,6.935236e+002
3.000907e+003,7.177927e+002
3.002835e+003,7.245170e+002
3.004764e+003,7.256129e+002
3.006692e+003,7.339140e+002
3.008621e+003,7.394003e+002
3.010549e+003,7.309133e+002
3.012478e+003,7.258521e+002
3.014406e+003,7.357040e+002
3.016335e+003,7.464744e+002
3.018263e+003,7.404196e+002
3.020192e+003,7.641756e+002
3.022120e+003,8.335475e+002
3.024049e+003,8.921460e+002
3.025977e+003,9.255630e+002
3.027906e+003,9.644734e+002
3.029834e+003,1.009364e+003
3.031762e+003,1.069710e+003
3.033691e+003,1.142352e+003
3.035619e+003,1.201166e+003
3.037548e+003,1.243437e+003
3.039476e+003,1.249923e+003
3.041405e+003,1.238242e+003
3.043333e+003,1.224831e+003
3.045262e+003,1.250998e+003
3.047190e+003,1.339332e+003
3.049119e+003,1.531530e+003
3.051047e+003,1.927477e+003
3.052976e+003,2.364111e+003
3.054904e+003,2.808080e+003
3.056833e+003,3.123793e+003
3.058761e+003,3.204080e+003
3.060689e+003,3.227356e+003
3.062618e+003,3.260564e+003
3.064546e+003,3.203606e+003
3.066475e+003,3.048455e+003
3.068403e+003,2.777962e+003
3.070332e+003,2.355126e+003
3.072260e+003,1.977735e+003
3.074189e+003,1.645256e+003
3.076117e+003,1.374079e+003
3.078046e+003,1.162899e+003
3.079974e+003,1.004046e+003
3.081903e+003,8.899943e+002
3.083831e+003,8.161666e+002
3.085760e+003,7.673182e+002
3.087688e+003,7.261926e+002
3.089616e+003,6.950527e+002
3.091545e+003,6.811466e+002
3.093473e+003,6.701874e+002
3.095402e+003,6.529979e+002
3.097330e+003,6.385526e+002
3.099259e+003,6.308959e+002
3.101187e+003,6.213896e+002
3.103116e+003,6.045995e+002
3.105044e+003,5.922181e+002
3.106973e+003,5.847300e+002
3.108901e+003,5.826625e+002
3.110830e+003,5.854537e+002
3.112758e+003,5.803652e+002
3.114687e+003,5.692346e+002
3.116615e+003,5.611958e+002
3.118543e+003,5.545247e+002
3.120472e+003,5.449992e+002
3.122400e+003,5.353766e+002
3.124329e+003,5.274727e+002
3.126257e+003,5.234205e+002
3.128186e+003,5.285300e+002
3.130114e+003,5.318331e+002
3.132043e+003,5.278113e+002
3.133971e+003,5.225601e+002
3.135900e+003,5.162322e+002
3.137828e+003,5.128026e+002
3.139757e+003,5.128784e+002
3.141685e+003,5.110409e+002
3.143614e+003,5.064610e+002
3.145542e+003,4.953099e+002
3.147470e+003,4.809050e+002
3.149399e+003,4.909679e+002
3.151327e+003,5.117499e+002
3.153256e+003,5.147915e+002
3.155184e+003,5.116887e+002
3.157113e+003,5.130197e+002
3.159041e+003,5.205174e+002
3.160970e+003,5.408446e+002
3.162898e+003,5.571873e+002
3.164827e+003,5.623026e+002
3.166755e+003,5.604727e+002
3.168684e+003,5.519374e+002
3.170612e+003,5.414277e+002
3.172541e+003,5.301260e+002
3.174469e+003,5.130082e+002
3.176397e+003,4.903107e+002
3.178326e+003,4.777349e+002
3.180254e+003,4.734596e+002
3.182183e+003,4.757200e+002
3.184111e+003,4.780721e+002
3.186040e+003,4.632919e+002
3.187968e+003,4.529528e+002
3.189897e+003,4.731452e+002
3.191825e+003,4.894853e+002
3.193754e+003,4.775538e+002
3.195682e+003,4.702831e+002
3.197611e+003,4.758330e+002
3.199539e+003,4.823926e+002
3.201468e+003,4.886711e+002
3.203396e+003,4.923951e+002
3.205324e+003,4.934797e+002
3.207253e+003,4.904400e+002
3.209181e+003,4.832194e+002
3.211110e+003,4.703951e+002
3.213038e+003,4.553845e+002
3.214967e+003,4.385204e+002
3.216895e+003,4.288631e+002
3.218824e+003,4.383107e+002
3.220752e+003,4.474020e+002
3.222681e+003,4.449073e+002
3.224609e+003,4.433005e+002
3.226538e+003,4.456296e+002
3.228466e+003,4.442613e+002
3.230395e+003,4.378216e+002
3.232323e+003,4.282721e+002
3.234251e+003,4.171752e+002
3.236180e+003,4.247571e+002
3.238108e+003,4.383342e+002
3.240037e+003,4.277994e+002
3.241965e+003,4.127115e+002
3.243894e+003,4.180764e+002
3.245822e+003,4.249414e+002
3.247751e+003,4.232768e+002
3.249679e+003,4.193780e+002
3.251608e+003,4.119992e+002
3.253536e+003,4.109359e+002
3.255465e+003,4.176592e+002
3.257393e+003,4.192060e+002
3.259322e+003,4.150817e+002
3.261250e+003,4.146526e+002
3.263178e+003,4.168987e+002
3.265107e+003,4.186487e+002
3.267035e+003,4.212220e+002
3.268964e+003,4.284688e+002
3.270892e+003,4.339378e+002
3.272821e+003,4.343136e+002
3.274749e+003,4.292214e+002
3.276678e+003,4.139182e+002
3.278606e+003,4.071797e+002
3.280535e+003,4.135502e+002
3.282463e+003,4.173984e+002
3.284392e+003,4.183141e+002
3.286320e+003,4.160290e+002
3.288249e+003,4.128276e+002
3.290177e+003,4.187140e+002
3.292105e+003,4.224673e+002
3.294034e+003,4.064446e+002
3.295962e+003,3.926514e+002
3.297891e+003,3.966329e+002
3.299819e+003,4.034843e+002
3.301748e+003,4.117757e+002
3.303676e+003,4.119526e+002
3.305605e+003,4.001319e+002
3.307533e+003,3.941146e+002
3.309462e+003,3.937522e+002
3.311390e+003,4.011454e+002
3.313319e+003,4.112425e+002
3.315247e+003,4.166208e+002
3.317176e+003,4.183169e+002
3.319104e+003,4.153749e+002
3.321032e+003,4.130116e+002
3.322961e+003,4.168064e+002
3.324889e+003,4.140847e+002
3.326818e+003,4.015642e+002
3.328746e+003,3.958310e+002
3.330675e+003,3.975342e+002
3.332603e+003,3.952049e+002
3.334532e+003,3.920918e+002
3.336460e+003,4.019768e+002
3.338389e+003,4.127874e+002
3.340317e+003,4.134715e+002
3.342246e+003,4.070891e+002
3.344174e+003,3.897294e+002
3.346103e+003,3.800753e+002
3.348031e+003,3.845793e+002
3.349959e+003,3.866192e+002
3.351888e+003,3.844649e+002
3.353816e+003,3.886951e+002
3.355745e+003,3.958169e+002
3.357673e+003,3.923633e+002
3.359602e+003,3.883940e+002
3.361530e+003,4.045663e+002
3.363459e+003,4.149400e+002
3.365387e+003,3.984128e+002
3.367316e+003,3.848628e+002
3.369244e+003,3.804329e+002
3.371173e+003,3.876360e+002
3.373101e+003,4.057018e+002
3.375030e+003,4.061956e+002
3.376958e+003,3.949651e+002
3.378886e+003,3.936007e+002
3.380815e+003,3.960800e+002
3.382743e+003,3.958267e+002
3.384672e+003,3.953076e+002
3.386600e+003,3.973780e+002
3.388529e+003,3.962404e+002
3.390457e+003,3.896759e+002
3.392386e+003,3.852407e+002
3.394314e+003,3.833275e+002
3.396243e+003,3.933954e+002
3.398171e+003,4.084796e+002
3.400100e+003,4.137262e+002
3.402028e+003,4.113788e+002
3.403957e+003,3.996942e+002
3.405885e+003,3.882184e+002
3.407813e+003,3.782128e+002
3.409742e+003,3.776908e+002
3.411670e+003,3.903856e+002
3.413599e+003,3.958176e+002
3.415527e+003,3.940281e+002
3.417456e+003,3.896597e+002
3.419384e+003,3.858998e+002
3.421313e+003,3.921076e+002
3.423241e+003,3.972888e+002
3.425170e+003,3.913126e+002
3.427098e+003,3.856784e+002
3.429027e+003,3.820346e+002
3.430955e+003,3.876590e+002
3.432884e+003,4.036148e+002
3.434812e+003,4.096396e+002
3.436740e+003,4.078486e+002
3.438669e+003,4.058953e+002
3.440597e+003,4.033309e+002
3.442526e+003,3.985780e+002
3.444454e+003,3.951327e+002
3.446383e+003,3.945687e+002
3.448311e+003,3.953336e+002
3.450240e+003,3.974177e+002
3.452168e+003,3.983788e+002
3.454097e+003,3.982817e+002
3.456025e+003,3.990535e+002
3.457954e+003,3.996847e+002
3.459882e+003,4.003169e+002
3.461811e+003,3.973431e+002
3.463739e+003,3.845964e+002
3.465667e+003,3.800805e+002
3.467596e+003,3.964229e+002
3.469524e+003,4.013311e+002
3.471453e+003,3.956310e+002
3.473381e+003,3.887461e+002
3.475310e+003,3.837662e+002
3.477238e+003,3.886967e+002
3.479167e+003,3.956170e+002
3.481095e+003,3.997733e+002
3.483024e+003,4.020072e+002
3.484952e+003,4.036863e+002
3.486881e+003,3.964511e+002
3.488809e+003,3.810679e+002
3.490738e+003,3.804644e+002
3.492666e+003,3.894351e+002
3.494594e+003,3.986237e+002
3.496523e+003,4.044204e+002
3.498451e+003,4.051666e+002
3.500380e+003,3.975955e+002
3.502308e+003,3.771518e+002
3.504237e+003,3.718153e+002
3.506165e+003,3.851660e+002
3.508094e+003,3.971336e+002
3.510022e+003,4.053245e+002
3.511951e+003,4.018610e+002
3.513879e+003,3.955057e+002
3.515808e+003,3.941321e+002
3.517736e+003,3.908986e+002
3.519665e+003,3.824410e+002
3.521593e+003,3.825743e+002
3.523521e+003,3.923152e+002
3.525450e+003,3.936037e+002
3.527378e+003,3.893575e+002
3.529307e+003,3.809629e+002
3.531235e+003,3.782302e+002
3.533164e+003,3.952869e+002
3.535092e+003,4.029991e+002
3.537021e+003,3.872644e+002
3.538949e+003,3.827939e+002
3.540878e+003,3.889311e+002
3.542806e+003,3.857186e+002
3.544735e+003,3.822748e+002
3.546663e+003,3.998061e+002
3.548592e+003,4.144754e+002
3.550520e+003,4.130275e+002
3.552448e+003,4.042819e+002
3.554377e+003,3.872499e+002
3.556305e+003,3.807268e+002
3.558234e+003,3.830936e+002
3.560162e+003,3.869496e+002
3.562091e+003,3.884803e+002
3.564019e+003,3.792191e+002
3.565948e+003,3.725024e+002
3.567876e+003,3.751994e+002
3.569805e+003,3.812764e+002
3.571733e+003,3.900289e+002
3.573662e+003,3.929722e+002
3.575590e+003,3.919796e+002
3.577519e+003,3.924997e+002
3.579447e+003,3.917548e+002
3.581376e+003,3.851442e+002
3.583304e+003,3.818457e+002
3.585233e+003,3.851256e+002
3.587161e+003,3.869211e+002
3.589090e+003,3.865412e+002
3.591018e+003,3.832495e+002
3.592947e+003,3.805252e+002
3.594875e+003,3.891604e+002
3.596803e+003,3.915915e+002
3.598732e+003,3.691090e+002
3.600660e+003,3.593724e+002
3.602589e+003,3.662666e+002
3.604517e+003,3.917027e+002
3.606446e+003,4.126628e+002
3.608374e+003,3.201921e+002
3.610303e+003,2.428073e+002
3.612231e+003,3.184240e+002
3.614160e+003,3.776790e+002
3.616088e+003,3.799222e+002
3.618017e+003,3.781586e+002
3.619945e+003,3.774532e+002
3.621874e+003,3.771279e+002
3.623802e+003,3.790948e+002
3.625730e+003,3.891915e+002
3.627659e+003,3.946789e+002
3.629587e+003,3.878801e+002
3.631516e+003,3.842106e+002
3.633444e+003,3.854859e+002
3.635373e+003,3.814841e+002
3.637301e+003,3.751974e+002
3.639230e+003,3.715875e+002
3.641158e+003,3.707622e+002
3.643087e+003,3.742512e+002
3.645015e+003,3.789489e+002
3.646944e+003,3.848123e+002
3.648872e+003,3.812474e+002
3.650801e+003,3.730302e+002
3.652729e+003,3.810250e+002
3.654657e+003,3.883374e+002
3.656586e+003,3.766517e+002
3.658514e+003,3.685343e+002
3.660443e+003,3.689153e+002
3.662371e+003,3.728251e+002
3.664300e+003,3.789348e+002
3.666228e+003,3.865956e+002
3.668157e+003,3.890393e+002
3.670085e+003,3.715153e+002
3.672014e+003,3.627219e+002
3.673942e+003,3.715964e+002
3.675871e+003,3.801231e+002
3.677799e+003,3.862648e+002
3.679728e+003,3.874827e+002
3.681656e+003,3.870802e+002
3.683584e+003,3.914399e+002
3.685513e+003,3.903647e+002
3.687441e+003,3.781190e+002
3.689370e+003,3.758198e+002
3.691298e+003,3.843864e+002
3.693227e+003,3.883324e+002
3.695155e+003,3.889376e+002
3.697084e+003,3.869771e+002
3.699012e+003,3.854643e+002
3.700941e+003,3.868692e+002
3.702869e+003,3.805931e+002
3.704798e+003,3.672889e+002
3.706726e+003,3.782151e+002
3.708655e+003,3.939669e+002
3.710583e+003,3.846564e+002
3.712511e+003,3.742838e+002
3.714440e+003,3.736452e+002
3.716368e+003,3.707383e+002
3.718297e+003,3.647987e+002
3.720225e+003,3.623765e+002
3.722154e+003,3.652303e+002
3.724082e+003,3.814556e+002
3.726011e+003,3.913828e+002
3.727939e+003,3.858779e+002
3.729868e+003,3.757320e+002
3.731796e+003,3.630234e+002
3.733725e+003,3.593191e+002
3.735653e+003,3.584186e+002
3.737582e+003,3.474415e+002
3.739510e+003,3.458461e+002
3.741438e+003,3.647404e+002
3.743367e+003,3.766293e+002
3.745295e+003,3.792464e+002
3.747224e+003,3.707783e+002
3.749152e+003,3.615677e+002
3.751081e+003,3.652292e+002
3.753009e+003,3.672291e+002
3.754938e+003,3.615254e+002
3.756866e+003,3.648703e+002
3.758795e+003,3.739615e+002
3.760723e+003,3.666219e+002
3.762652e+003,3.577503e+002
3.764580e+003,3.601996e+002
3.766509e+003,3.682854e+002
3.768437e+003,3.827013e+002
3.770365e+003,3.766798e+002
3.772294e+003,3.584972e+002
3.774222e+003,3.529994e+002
3.776151e+003,3.570087e+002
3.778079e+003,3.734689e+002
3.780008e+003,3.829398e+002
3.781936e+003,3.827681e+002
3.783865e+003,3.769284e+002
3.785793e+003,3.679375e+002
3.787722e+003,3.570779e+002
3.789650e+003,3.509776e+002
3.791579e+003,3.555049e+002
3.793507e+003,3.564100e+002
3.795436e+003,3.530028e+002
3.797364e+003,3.536452e+002
3.799292e+003,3.564995e+002
3.801221e+003,3.590236e+002
3.803149e+003,3.637039e+002
3.805078e+003,3.744387e+002
3.807006e+003,3.695146e+002
3.808935e+003,3.538742e+002
3.810863e+003,3.510782e+002
3.812792e+003,3.526693e+002
3.814720e+003,3.510503e+002
3.816649e+003,3.529955e+002
3.818577e+003,3.609014e+002
3.820506e+003,3.667984e+002
3.822434e+003,3.695751e+002
3.824363e+003,3.654061e+002
3.826291e+003,3.616199e+002
3.828219e+003,3.627949e+002
3.830148e+003,3.603092e+002
3.832076e+003,3.537281e+002
3.834005e+003,3.475545e+002
3.835933e+003,3.464943e+002
3.837862e+003,3.612073e+002
3.839790e+003,3.703448e+002
3.841719e+003,3.689172e+002
3.843647e+003,3.578674e+002
3.845576e+003,3.447252e+002
3.847504e+003,3.575675e+002
3.849433e+003,3.685219e+002
3.851361e+003,3.505405e+002
3.853290e+003,3.517487e+002
3.855218e+003,3.728167e+002
3.857146e+003,3.705324e+002
3.859075e+003,3.556273e+002
3.861003e+003,3.357083e+002
3.862932e+003,3.296120e+002
3.864860e+003,3.494406e+002
3.866789e+003,3.587395e+002
3.868717e+003,3.591819e+002
3.870646e+003,3.575803e+002
3.872574e+003,3.563418e+002
3.874503e+003,3.564813e+002
3.876431e+003,3.595977e+002
3.878360e+003,3.651577e+002
3.880288e+003,3.608679e+002
3.882217e+003,3.519478e+002
3.884145e+003,3.378969e+002
3.886073e+003,3.378364e+002
3.888002e+003,3.612368e+002
3.889930e+003,3.682163e+002
3.891859e+003,3.650738e+002
3.893787e+003,3.723314e+002
3.895716e+003,3.760793e+002
3.897644e+003,3.681246e+002
3.899573e+003,3.568733e+002
3.901501e+003,3.451028e+002
3.903430e+003,3.495033e+002
3.905358e+003,3.588718e+002
3.907287e+003,3.650554e+002
3.909215e+003,3.653130e+002
3.911144e+003,3.595148e+002
3.913072e+003,3.550912e+002
3.915000e+003,3.514270e+002
3.916929e+003,3.441504e+002
3.918857e+003,3.435150e+002
3.920786e+003,3.578718e+002
3.922714e+003,3.609538e+002
3.924643e+003,3.560956e+002
3.926571e+003,3.580817e+002
3.928500e+003,3.583614e+002
3.930428e+003,3.504873e+002
3.932357e+003,3.444567e+002
3.934285e+003,3.417332e+002
3.936214e+003,3.487361e+002
3.938142e+003,3.556294e+002
3.940071e+003,3.494423e+002
3.941999e+003,3.477929e+002
3.943927e+003,3.548474e+002
3.945856e+003,3.568483e+002
3.947784e+003,3.578691e+002
3.949713e+003,3.664143e+002
3.951641e+003,3.714101e+002
3.953570e+003,3.700270e+002
3.955498e+003,3.624048e+002
3.957427e+003,3.525270e+002
3.959355e+003,3.502851e+002
3.961284e+003,3.493374e+002
3.963212e+003,3.469035e+002
3.965141e+003,3.426516e+002
3.967069e+003,3.382841e+002
3.968998e+003,3.406933e+002
3.970926e+003,3.461263e+002
3.972854e+003,3.539013e+002
3.974783e+003,3.559384e+002
3.976711e+003,3.531472e+002
3.978640e+003,3.614108e+002
3.980568e+003,3.661817e+002
3.982497e+003,3.487273e+002
3.984425e+003,3.397783e+002
3.986354e+003,3.455377e+002
3.988282e+003,3.403190e+002
3.990211e+003,3.350278e+002
3.992139e+003,3.457249e+002
3.994068e+003,3.564090e+002
3.995996e+003,3.633818e+002
3.997925e+003,3.618835e+002
3.999853e+003,3.546923e+002
4.001781e+003,3.420377e+002
4.003710e+003,3.371103e+002
4.005638e+003,3.448283e+002
4.007567e+003,3.458538e+002
4.009495e+003,3.439905e+002
4.011424e+003,3.514905e+002
4.013352e+003,3.557830e+002
4.015281e+003,3.476896e+002
4.017209e+003,3.482128e+002
4.019138e+003,3.521579e+002
4.021066e+003,3.448065e+002
4.022995e+003,3.374117e+002
4.024923e+003,3.345833e+002
4.026852e+003,3.374814e+002
4.028780e+003,3.434565e+002
4.030708e+003,3.451494e+002
4.032637e+003,3.428542e+002
4.034565e+003,3.352223e+002
4.036494e+003,3.304219e+002
4.038422e+003,3.291493e+002
4.040351e+003,3.340787e+002
4.042279e+003,3.372144e+002
4.044208e+003,3.311113e+002
4.046136e+003,3.283749e+002
4.048065e+003,3.289194e+002
4.049993e+003,3.284246e+002
4.051922e+003,3.298483e+002
4.053850e+003,3.355893e+002
4.055779e+003,3.411038e+002
4.057707e+003,3.449409e+002
4.059635e+003,3.391081e+002
4.061564e+003,3.347574e+002
4.063492e+003,3.406449e+002
4.065421e+003,3.423511e+002
4.067349e+003,3.389482e+002
4.069278e+003,3.324366e+002
4.071206e+003,3.272953e+002
4.073135e+003,3.262554e+002
4.075063e+003,3.319056e+002
4.076992e+003,3.408744e+002
4.078920e+003,3.365920e+002
4.080849e+003,3.276503e+002
4.082777e+003,3.181345e+002
4.084706e+003,3.096267e+002
4.086634e+003,3.052690e+002
4.088563e+003,3.223569e+002
4.090491e+003,3.370643e+002
4.092419e+003,3.357971e+002
4.094348e+003,3.288571e+002
4.096276e+003,3.214047e+002
4.098205e+003,3.334845e+002
4.100133e+003,3.426591e+002
4.102062e+003,3.341637e+002
4.103990e+003,3.302523e+002
4.105919e+003,3.329438e+002
4.107847e+003,3.537198e+002
4.109776e+003,3.615951e+002
4.111704e+003,3.268196e+002
4.113633e+003,3.170303e+002
4.115561e+003,3.243997e+002
4.117490e+003,3.283185e+002
4.119418e+003,3.323670e+002
4.121347e+003,3.388418e+002
4.123275e+003,3.312484e+002
4.125204e+003,3.210773e+002
4.127132e+003,3.376904e+002
4.129061e+003,3.457561e+002
4.130989e+003,3.353095e+002
4.132917e+003,3.290666e+002
4.134846e+003,3.264866e+002
4.136774e+003,3.257798e+002
4.138703e+003,3.255013e+002
4.140631e+003,3.253065e+002
4.142560e+003,3.228250e+002
4.144488e+003,3.204543e+002
4.146417e+003,3.228634e+002
4.148345e+003,3.204939e+002
4.150273e+003,3.123985e+002
4.152202e+003,3.145315e+002
4.154130e+003,3.193299e+002
4.156059e+003,3.213460e+002
4.157987e+003,3.178499e+002
4.159916e+003,3.110231e+002
4.161844e+003,3.171289e+002
4.163773e+003,3.233729e+002
4.165701e+003,3.191924e+002
4.167630e+003,3.212445e+002
4.169558e+003,3.263926e+002
4.171487e+003,3.221362e+002
4.173415e+003,3.165366e+002
4.175344e+003,3.124333e+002
4.177272e+003,3.181830e+002
4.179201e+003,3.260129e+002
4.181129e+003,3.176161e+002
4.183058e+003,3.134773e+002
4.184986e+003,3.184144e+002
4.186915e+003,3.161825e+002
4.188843e+003,3.132965e+002
4.190771e+003,3.201556e+002
4.192700e+003,3.225287e+002
4.194628e+003,3.183338e+002
4.196557e+003,3.091480e+002
4.198485e+003,3.030176e+002
4.200414e+003,3.066247e+002
4.202342e+003,3.141344e+002
4.204271e+003,3.225027e+002
4.206199e+003,3.221019e+002
4.208127e+003,3.171435e+002
4.210056e+003,3.070227e+002
4.211984e+003,3.093187e+002
4.213913e+003,3.174347e+002
4.215841e+003,3.180513e+002
4.217770e+003,3.149492e+002
4.219698e+003,3.085720e+002
4.221627e+003,3.065941e+002
4.223555e+003,3.063006e+002
4.225484e+003,3.012511e+002
4.227412e+003,3.099874e+002
4.229341e+003,3.296928e+002
4.231269e+003,3.197205e+002
4.233198e+003,3.073327e+002
4.235126e+003,3.126532e+002
4.237055e+003,3.183489e+002
4.238983e+003,3.194672e+002
4.240912e+003,2.985433e+002
4.242840e+003,2.885389e+002
4.244769e+003,3.030632e+002
4.246697e+003,3.021212e+002
4.248625e+003,2.956216e+002
4.250554e+003,2.957977e+002
