1.159199e+002,6.548439e+001
1.178484e+002,8.395219e+001
1.197769e+002,9.448129e+001
1.217053e+002,9.639307e+001
1.236338e+002,9.797472e+001
1.255623e+002,1.011179e+002
1.274907e+002,1.029638e+002
1.294192e+002,1.014093e+002
1.313477e+002,9.333020e+001
1.332761e+002,8.507508e+001
1.352046e+002,7.854929e+001
1.371331e+002,7.411906e+001
1.390615e+002,6.921830e+001
1.409900e+002,6.144188e+001
1.429185e+002,5.306792e+001
1.448469e+002,4.882643e+001
1.467754e+002,5.201060e+001
1.487039e+002,5.629444e+001
1.506323e+002,5.920658e+001
1.525608e+002,6.079856e+001
1.544893e+002,6.182004e+001
1.564177e+002,6.201101e+001
1.583462e+002,6.170342e+001
1.602747e+002,6.262840e+001
1.622031e+002,6.476117e+001
1.641316e+002,6.791421e+001
1.660601e+002,7.171686e+001
1.679885e+002,7.584605e+001
1.699170e+002,8.138542e+001
1.718455e+002,9.069785e+001
1.737739e+002,1.034779e+002
1.757024e+002,1.098977e+002
1.776309e+002,1.065009e+002
1.795593e+002,9.877113e+001
1.814878e+002,9.149502e+001
1.834163e+002,8.452777e+001
1.853447e+002,7.814080e+001
1.872732e+002,7.143953e+001
1.892017e+002,6.452098e+001
1.911301e+002,6.117072e+001
1.930586e+002,6.433382e+001
1.949871e+002,7.053935e+001
1.969155e+002,7.571938e+001
1.988440e+002,7.960036e+001
2.007725e+002,8.303228e+001
2.027009e+002,8.715019e+001
2.046294e+002,9.253858e+001
2.065579e+002,9.407090e+001
2.084864e+002,8.880106e+001
2.104148e+002,7.948778e+001
2.123433e+002,7.226250e+001
2.142718e+002,6.773787e+001
2.162002e+002,6.431389e+001
2.181287e+002,6.124563e+001
2.200572e+002,5.858537e+001
2.219856e+002,5.619889e+001
2.239141e+002,5.452502e+001
2.258426e+002,5.313050e+001
2.277710e+002,5.091646e+001
2.296995e+002,4.707589e+001
2.316280e+002,4.335501e+001
2.335564e+002,4.058690e+001
2.354849e+002,4.027797e+001
2.374134e+002,3.889726e+001
2.393418e+002,3.522250e+001
2.412703e+002,3.042849e+001
2.431988e+002,2.710269e+001
2.451272e+002,2.710849e+001
2.470557e+002,2.739665e+001
2.489842e+002,2.640179e+001
2.509126e+002,2.325716e+001
2.528411e+002,2.062522e+001
2.547696e+002,1.891465e+001
2.566980e+002,1.797729e+001
2.586265e+002,1.760318e+001
2.605550e+002,1.791678e+001
2.624834e+002,1.869995e+001
2.644119e+002,2.022280e+001
2.663404e+002,2.289031e+001
2.682688e+002,2.471491e+001
2.701973e+002,2.477078e+001
2.721258e+002,2.347054e+001
2.740542e+002,2.240080e+001
2.759827e+002,2.008214e+001
2.779112e+002,1.901923e+001
2.798396e+002,2.177750e+001
2.817681e+002,2.932374e+001
2.836966e+002,3.462710e+001
2.856250e+002,3.519639e+001
2.875535e+002,3.211609e+001
2.894820e+002,2.947664e+001
2.914104e+002,2.789108e+001
2.933389e+002,2.619676e+001
2.952674e+002,2.348842e+001
2.971958e+002,1.921618e+001
2.991243e+002,1.639699e+001
3.010528e+002,1.597170e+001
3.029813e+002,1.732850e+001
3.049097e+002,1.847282e+001
3.068382e+002,1.889413e+001
3.087667e+002,1.964102e+001
3.106951e+002,2.151062e+001
3.126236e+002,2.531743e+001
3.145521e+002,2.746206e+001
3.164805e+002,2.582328e+001
3.184090e+002,2.258878e+001
3.203375e+002,2.240756e+001
3.222659e+002,2.738141e+001
3.241944e+002,3.236274e+001
3.261229e+002,3.530654e+001
3.280513e+002,3.520868e+001
3.299798e+002,3.549720e+001
3.319083e+002,3.708889e+001
3.338367e+002,3.873096e+001
3.357652e+002,3.879803e+001
3.376937e+002,3.654290e+001
3.396221e+002,3.386195e+001
3.415506e+002,3.117851e+001
3.434791e+002,2.838819e+001
3.454075e+002,2.646230e+001
3.473360e+002,2.540356e+001
3.492645e+002,2.524732e+001
3.511929e+002,2.633589e+001
3.531214e+002,3.067713e+001
3.550499e+002,3.226549e+001
3.569783e+002,2.751286e+001
3.589068e+002,1.674513e+001
3.608353e+002,1.145668e+001
3.627637e+002,1.681516e+001
3.646922e+002,2.364411e+001
3.666207e+002,2.631053e+001
3.685491e+002,2.217230e+001
3.704776e+002,1.935220e+001
3.724061e+002,2.008706e+001
3.743345e+002,2.325768e+001
3.762630e+002,2.458837e+001
3.781915e+002,2.212350e+001
3.801199e+002,2.008941e+001
3.820484e+002,2.051776e+001
3.839769e+002,2.481428e+001
3.859053e+002,2.829560e+001
3.878338e+002,3.089804e+001
3.897623e+002,3.247496e+001
3.916907e+002,3.277802e+001
3.936192e+002,3.076303e+001
3.955477e+002,2.926938e+001
3.974761e+002,2.928427e+001
3.994046e+002,3.110622e+001
4.013331e+002,3.294836e+001
4.032615e+002,3.564116e+001
4.051900e+002,3.784819e+001
4.071185e+002,3.809673e+001
4.090469e+002,3.524195e+001
4.109754e+002,3.394215e+001
4.129039e+002,3.578800e+001
4.148323e+002,4.030330e+001
4.167608e+002,4.438804e+001
4.186893e+002,4.755895e+001
4.206177e+002,5.074827e+001
4.225462e+002,5.516172e+001
4.244747e+002,6.145887e+001
4.264032e+002,6.460378e+001
4.283316e+002,6.081266e+001
4.302601e+002,5.428376e+001
4.321886e+002,5.222170e+001
4.341170e+002,5.619830e+001
4.360455e+002,6.131582e+001
4.379740e+002,6.684746e+001
4.399024e+002,7.272651e+001
4.418309e+002,7.682062e+001
4.437594e+002,7.825648e+001
4.456878e+002,7.842628e+001
4.476163e+002,7.829839e+001
4.495448e+002,7.828858e+001
4.514732e+002,7.671474e+001
4.534017e+002,7.167675e+001
4.553302e+002,6.476437e+001
4.572586e+002,5.941210e+001
4.591871e+002,5.475748e+001
4.611156e+002,5.252992e+001
4.630440e+002,5.407528e+001
4.649725e+002,5.934212e+001
4.669010e+002,6.542055e+001
4.688294e+002,7.602245e+001
4.707579e+002,8.475633e+001
4.726864e+002,8.647547e+001
4.746148e+002,7.247137e+001
4.765433e+002,6.134444e+001
4.784718e+002,5.590253e+001
4.804002e+002,5.435740e+001
4.823287e+002,5.171235e+001
4.842572e+002,4.730795e+001
4.861856e+002,4.240907e+001
4.881141e+002,3.708763e+001
4.900426e+002,3.057668e+001
4.919710e+002,2.679698e+001
4.938995e+002,2.701171e+001
4.958280e+002,2.915235e+001
4.977564e+002,3.159067e+001
4.996849e+002,3.480745e+001
5.016134e+002,3.691656e+001
5.035418e+002,3.706832e+001
5.054703e+002,3.571807e+001
5.073988e+002,3.472073e+001
5.093272e+002,3.359364e+001
5.112557e+002,3.318020e+001
5.131842e+002,3.429304e+001
5.151127e+002,3.681314e+001
5.170411e+002,3.868324e+001
5.189696e+002,3.835776e+001
5.208981e+002,3.797522e+001
5.228265e+002,3.946440e+001
5.247550e+002,4.408068e+001
5.266835e+002,4.805158e+001
5.286119e+002,5.001046e+001
5.305404e+002,5.112106e+001
5.324689e+002,5.349729e+001
5.343973e+002,5.903595e+001
5.363258e+002,6.379018e+001
5.382543e+002,6.673940e+001
5.401827e+002,6.765542e+001
5.421112e+002,6.715839e+001
5.440397e+002,6.514870e+001
5.459681e+002,6.162593e+001
5.478966e+002,5.584744e+001
5.498251e+002,4.587560e+001
5.517535e+002,4.043361e+001
5.536820e+002,4.363546e+001
5.556105e+002,5.060018e+001
5.575389e+002,5.353565e+001
5.594674e+002,5.192298e+001
5.613959e+002,4.846624e+001
5.633243e+002,4.211248e+001
5.652528e+002,3.394156e+001
5.671813e+002,2.914083e+001
5.691097e+002,3.112765e+001
5.710382e+002,3.369644e+001
5.729667e+002,3.419289e+001
5.748951e+002,3.235398e+001
5.768236e+002,3.152804e+001
5.787521e+002,3.277765e+001
5.806805e+002,3.470774e+001
5.826090e+002,3.625660e+001
5.845375e+002,3.735690e+001
5.864659e+002,3.811635e+001
5.883944e+002,3.768238e+001
5.903229e+002,3.710903e+001
5.922513e+002,3.874826e+001
5.941798e+002,4.443798e+001
5.961083e+002,4.859591e+001
5.980367e+002,4.799713e+001
5.999652e+002,4.326784e+001
6.018937e+002,4.155226e+001
6.038221e+002,4.347583e+001
6.057506e+002,4.764850e+001
6.076791e+002,5.509692e+001
6.096075e+002,6.583714e+001
6.115360e+002,7.375130e+001
6.134645e+002,7.645757e+001
6.153929e+002,7.696298e+001
6.173214e+002,7.777921e+001
6.192499e+002,8.097186e+001
6.211783e+002,8.031421e+001
6.231068e+002,7.297816e+001
6.250353e+002,6.254570e+001
6.269637e+002,5.433608e+001
6.288922e+002,4.825726e+001
6.308207e+002,4.421079e+001
6.327491e+002,4.256023e+001
6.346776e+002,4.290127e+001
6.366061e+002,4.398276e+001
6.385345e+002,4.609642e+001
6.404630e+002,4.859667e+001
6.423915e+002,5.207217e+001
6.443199e+002,5.618418e+001
6.462484e+002,5.833551e+001
6.481769e+002,5.850999e+001
6.501053e+002,5.623407e+001
6.520338e+002,5.080714e+001
6.539623e+002,4.018225e+001
6.558907e+002,3.238456e+001
6.578192e+002,2.747178e+001
6.597477e+002,2.519478e+001
6.616761e+002,2.634908e+001
6.636046e+002,3.174453e+001
6.655331e+002,3.573931e+001
6.674615e+002,3.538067e+001
6.693900e+002,3.327947e+001
6.713185e+002,3.274619e+001
6.732469e+002,3.584412e+001
6.751754e+002,3.821575e+001
6.771039e+002,4.013649e+001
6.790323e+002,4.090534e+001
6.809608e+002,3.866551e+001
6.828893e+002,3.043524e+001
6.848177e+002,2.427826e+001
6.867462e+002,2.454146e+001
6.886747e+002,3.080843e+001
6.906031e+002,3.385842e+001
6.925316e+002,3.042696e+001
6.944601e+002,2.700177e+001
6.963885e+002,2.693654e+001
6.983170e+002,2.997053e+001
7.002455e+002,3.124652e+001
7.021740e+002,2.842011e+001
7.041024e+002,2.547349e+001
7.060309e+002,2.480022e+001
7.079594e+002,2.722062e+001
7.098878e+002,2.937032e+001
7.118163e+002,3.201379e+001
7.137448e+002,3.383082e+001
7.156732e+002,3.279503e+001
7.176017e+002,2.829755e+001
7.195302e+002,2.563512e+001
7.214586e+002,2.799684e+001
7.233871e+002,3.173496e+001
7.253156e+002,3.300553e+001
7.272440e+002,2.936494e+001
7.291725e+002,2.745659e+001
7.311010e+002,2.936535e+001
7.330294e+002,3.302584e+001
7.349579e+002,3.464083e+001
7.368864e+002,3.341549e+001
7.388149e+002,3.229290e+001
7.407433e+002,3.222673e+001
7.426718e+002,3.289392e+001
7.446003e+002,3.368542e+001
7.465287e+002,3.496728e+001
7.484572e+002,3.592847e+001
7.503857e+002,3.613579e+001
7.523141e+002,3.584246e+001
7.542426e+002,3.599759e+001
7.561711e+002,3.607706e+001
7.580995e+002,3.739380e+001
7.600280e+002,4.117315e+001
7.619565e+002,4.688809e+001
7.638849e+002,5.182862e+001
7.658134e+002,5.484440e+001
7.677419e+002,5.800355e+001
7.696703e+002,6.342188e+001
7.715988e+002,7.083180e+001
7.735273e+002,7.278765e+001
7.754557e+002,6.661049e+001
7.773842e+002,5.787440e+001
7.793127e+002,4.734059e+001
7.812411e+002,3.530717e+001
7.831696e+002,2.847659e+001
7.850981e+002,3.229686e+001
7.870266e+002,3.737389e+001
7.889550e+002,3.957882e+001
7.908835e+002,3.824034e+001
7.928120e+002,3.804183e+001
7.947404e+002,3.919427e+001
7.966689e+002,4.135050e+001
7.985974e+002,4.537691e+001
8.005258e+002,5.137740e+001
8.024543e+002,5.425160e+001
8.043828e+002,5.047421e+001
8.063112e+002,4.531549e+001
8.082397e+002,4.105953e+001
8.101682e+002,3.731316e+001
8.120966e+002,3.644101e+001
8.140251e+002,4.077444e+001
8.159536e+002,4.618713e+001
8.178820e+002,4.945838e+001
8.198105e+002,5.050672e+001
8.217390e+002,5.317929e+001
8.236674e+002,5.824607e+001
8.255959e+002,6.528381e+001
8.275244e+002,7.415008e+001
8.294528e+002,8.488356e+001
8.313813e+002,9.780797e+001
8.333098e+002,1.117342e+002
8.352382e+002,1.286415e+002
8.371667e+002,1.543784e+002
8.390952e+002,1.897994e+002
8.410236e+002,2.135182e+002
8.429521e+002,2.197122e+002
8.448806e+002,2.129491e+002
8.468090e+002,1.939856e+002
8.487375e+002,1.555766e+002
8.506660e+002,1.238196e+002
8.525944e+002,9.958524e+001
8.545229e+002,8.112570e+001
8.564514e+002,6.875357e+001
8.583798e+002,6.260476e+001
8.603083e+002,5.668919e+001
8.622368e+002,4.787354e+001
8.641652e+002,4.119459e+001
8.660937e+002,4.045340e+001
8.680222e+002,4.714966e+001
8.699506e+002,5.286304e+001
8.718791e+002,5.588782e+001
8.738076e+002,5.878061e+001
8.757360e+002,6.250740e+001
8.776645e+002,6.687831e+001
8.795930e+002,7.478094e+001
8.815214e+002,8.967133e+001
8.834499e+002,1.052355e+002
8.853784e+002,1.195977e+002
8.873068e+002,1.329936e+002
8.892353e+002,1.388966e+002
8.911638e+002,1.325770e+002
8.930922e+002,1.217158e+002
8.950207e+002,1.082228e+002
8.969492e+002,9.153246e+001
8.988776e+002,7.726890e+001
9.008061e+002,6.531597e+001
9.027346e+002,5.574757e+001
9.046630e+002,4.833015e+001
9.065915e+002,4.310640e+001
9.085200e+002,4.204994e+001
9.104484e+002,4.913489e+001
9.123769e+002,5.563024e+001
9.143054e+002,5.812769e+001
9.162338e+002,5.681018e+001
9.181623e+002,5.474218e+001
9.200908e+002,5.066539e+001
9.220192e+002,4.723974e+001
9.239477e+002,4.602391e+001
9.258762e+002,4.620468e+001
9.278046e+002,4.488675e+001
9.297331e+002,4.104602e+001
9.316616e+002,3.733493e+001
9.335900e+002,3.439602e+001
9.355185e+002,3.231857e+001
9.374470e+002,3.151237e+001
9.393754e+002,3.347462e+001
9.413039e+002,3.481186e+001
9.432324e+002,3.491869e+001
9.451608e+002,3.412460e+001
9.470893e+002,3.295539e+001
9.490178e+002,3.117840e+001
9.509462e+002,2.973173e+001
9.528747e+002,2.878723e+001
9.548032e+002,2.834198e+001
9.567316e+002,2.834294e+001
9.586601e+002,2.874533e+001
9.605886e+002,2.977275e+001
9.625170e+002,3.191609e+001
9.644455e+002,3.435520e+001
9.663740e+002,3.654545e+001
9.683024e+002,3.886696e+001
9.702309e+002,3.974668e+001
9.721594e+002,3.680265e+001
9.740878e+002,3.424556e+001
9.760163e+002,3.607012e+001
9.779448e+002,4.181916e+001
9.798733e+002,4.530167e+001
9.818018e+002,4.312769e+001
9.837302e+002,4.141586e+001
9.856587e+002,4.338518e+001
9.875872e+002,4.909688e+001
9.895156e+002,5.425724e+001
9.914441e+002,6.070345e+001
9.933726e+002,6.460780e+001
9.953010e+002,6.438144e+001
9.972295e+002,6.049818e+001
9.991580e+002,5.473178e+001
1.001086e+003,4.487536e+001
1.003015e+003,3.768191e+001
1.004943e+003,3.758672e+001
1.006872e+003,4.101237e+001
1.008800e+003,4.238493e+001
1.010729e+003,4.057361e+001
1.012657e+003,3.924133e+001
1.014586e+003,3.924960e+001
1.016514e+003,3.985579e+001
1.018443e+003,4.042950e+001
1.020371e+003,4.144628e+001
1.022300e+003,4.114000e+001
1.024228e+003,3.751174e+001
1.026156e+003,3.409297e+001
1.028085e+003,3.386890e+001
1.030013e+003,3.648410e+001
1.031942e+003,3.841416e+001
1.033870e+003,3.693184e+001
1.035799e+003,3.769704e+001
1.037727e+003,4.591403e+001
1.039656e+003,6.046665e+001
1.041584e+003,6.698788e+001
1.043513e+003,5.605573e+001
1.045441e+003,4.804217e+001
1.047370e+003,4.960664e+001
1.049298e+003,5.674023e+001
1.051227e+003,6.004659e+001
1.053155e+003,5.865868e+001
1.055083e+003,5.655614e+001
1.057012e+003,5.348901e+001
1.058940e+003,5.090506e+001
1.060869e+003,5.046397e+001
1.062797e+003,5.259192e+001
1.064726e+003,5.412860e+001
1.066654e+003,5.206446e+001
1.068583e+003,5.139128e+001
1.070511e+003,5.540016e+001
1.072440e+003,6.455355e+001
1.074368e+003,7.314973e+001
1.076297e+003,8.040393e+001
1.078225e+003,8.802245e+001
1.080154e+003,9.648220e+001
1.082082e+003,1.058759e+002
1.084010e+003,1.166395e+002
1.085939e+003,1.304603e+002
1.087867e+003,1.415957e+002
1.089796e+003,1.495099e+002
1.091724e+003,1.529449e+002
1.093653e+003,1.489704e+002
1.095581e+003,1.347886e+002
1.097510e+003,1.218901e+002
1.099438e+003,1.119365e+002
1.101367e+003,1.032410e+002
1.103295e+003,9.530206e+001
1.105224e+003,8.832578e+001
1.107152e+003,7.975925e+001
1.109081e+003,6.473038e+001
1.111009e+003,5.353231e+001
1.112938e+003,5.181945e+001
1.114866e+003,5.647121e+001
1.116794e+003,5.999229e+001
1.118723e+003,6.097958e+001
1.120651e+003,6.418977e+001
1.122580e+003,7.495904e+001
1.124508e+003,8.643081e+001
1.126437e+003,9.123073e+001
1.128365e+003,8.727260e+001
1.130294e+003,8.303555e+001
1.132222e+003,7.785996e+001
1.134151e+003,7.362548e+001
1.136079e+003,7.223669e+001
1.138008e+003,7.342000e+001
1.139936e+003,7.225974e+001
1.141865e+003,6.588120e+001
1.143793e+003,6.145987e+001
1.145721e+003,6.156541e+001
1.147650e+003,6.506552e+001
1.149578e+003,7.024275e+001
1.151507e+003,7.729975e+001
1.153435e+003,8.498447e+001
1.155364e+003,9.623705e+001
1.157292e+003,1.052815e+002
1.159221e+003,1.082486e+002
1.161149e+003,1.047324e+002
1.163078e+003,9.863708e+001
1.165006e+003,8.736625e+001
1.166935e+003,7.669920e+001
1.168863e+003,6.851836e+001
1.170792e+003,6.223055e+001
1.172720e+003,5.597136e+001
1.174648e+003,4.845205e+001
1.176577e+003,4.409347e+001
1.178505e+003,4.657346e+001
1.180434e+003,5.060221e+001
1.182362e+003,5.108920e+001
1.184291e+003,4.821479e+001
1.186219e+003,4.752739e+001
1.188148e+003,5.086359e+001
1.190076e+003,5.505531e+001
1.192005e+003,5.966792e+001
1.193933e+003,6.413676e+001
1.195862e+003,6.654829e+001
1.197790e+003,6.637968e+001
1.199719e+003,6.484163e+001
1.201647e+003,6.140410e+001
1.203575e+003,5.710742e+001
1.205504e+003,5.234007e+001
1.207432e+003,4.682435e+001
1.209361e+003,4.364375e+001
1.211289e+003,4.422352e+001
1.213218e+003,4.550571e+001
1.215146e+003,4.688052e+001
1.217075e+003,4.796208e+001
1.219003e+003,4.778733e+001
1.220932e+003,4.591419e+001
1.222860e+003,4.442410e+001
1.224789e+003,4.354802e+001
1.226717e+003,4.355201e+001
1.228646e+003,4.532524e+001
1.230574e+003,4.926688e+001
1.232502e+003,5.072374e+001
1.234431e+003,4.661855e+001
1.236359e+003,4.339391e+001
1.238288e+003,4.237207e+001
1.240216e+003,4.344993e+001
1.242145e+003,4.696503e+001
1.244073e+003,5.503672e+001
1.246002e+003,6.010085e+001
1.247930e+003,5.797119e+001
1.249859e+003,5.590027e+001
1.251787e+003,6.046184e+001
1.253716e+003,6.964072e+001
1.255644e+003,7.411841e+001
1.257573e+003,7.148677e+001
1.259501e+003,6.821268e+001
1.261429e+003,6.465914e+001
1.263358e+003,6.280614e+001
1.265286e+003,6.590082e+001
1.267215e+003,7.500819e+001
1.269143e+003,8.214674e+001
1.271072e+003,8.280327e+001
1.273000e+003,8.510623e+001
1.274929e+003,9.550551e+001
1.276857e+003,1.101563e+002
1.278786e+003,1.160700e+002
1.280714e+003,1.048642e+002
1.282643e+003,9.699226e+001
1.284571e+003,9.492025e+001
1.286500e+003,9.484192e+001
1.288428e+003,9.298026e+001
1.290356e+003,8.982171e+001
1.292285e+003,9.140620e+001
1.294213e+003,1.002473e+002
1.296142e+003,1.094121e+002
1.298070e+003,1.170564e+002
1.299999e+003,1.233257e+002
1.301927e+003,1.288826e+002
1.303856e+003,1.338182e+002
1.305784e+003,1.357177e+002
1.307713e+003,1.322670e+002
1.309641e+003,1.282794e+002
1.311570e+003,1.235685e+002
1.313498e+003,1.200984e+002
1.315427e+003,1.232438e+002
1.317355e+003,1.348519e+002
1.319283e+003,1.493627e+002
1.321212e+003,1.726954e+002
1.323140e+003,1.926164e+002
1.325069e+003,2.023870e+002
1.326997e+003,2.021444e+002
1.328926e+003,1.930399e+002
1.330854e+003,1.694663e+002
1.332783e+003,1.466652e+002
1.334711e+003,1.248337e+002
1.336640e+003,1.063413e+002
1.338568e+003,9.394815e+001
1.340497e+003,8.731515e+001
1.342425e+003,8.362560e+001
1.344354e+003,8.317597e+001
1.346282e+003,8.477286e+001
1.348210e+003,9.122141e+001
1.350139e+003,9.764001e+001
1.352068e+003,9.768099e+001
1.353996e+003,9.092684e+001
1.355924e+003,8.429474e+001
1.357853e+003,7.878208e+001
1.359781e+003,7.345582e+001
1.361710e+003,6.743328e+001
1.363638e+003,6.149937e+001
1.365567e+003,5.721096e+001
1.367495e+003,5.462769e+001
1.369424e+003,5.363232e+001
1.371352e+003,5.586270e+001
1.373281e+003,5.781496e+001
1.375209e+003,5.709526e+001
1.377138e+003,5.481728e+001
1.379066e+003,5.466551e+001
1.380995e+003,5.765203e+001
1.382923e+003,6.074129e+001
1.384851e+003,6.469346e+001
1.386780e+003,6.777679e+001
1.388708e+003,6.682670e+001
1.390637e+003,6.381686e+001
1.392565e+003,6.684380e+001
1.394494e+003,7.734888e+001
1.396422e+003,8.931689e+001
1.398351e+003,1.021613e+002
1.400279e+003,1.152614e+002
1.402208e+003,1.281423e+002
1.404136e+003,1.408548e+002
1.406065e+003,1.540309e+002
1.407993e+003,1.686495e+002
1.409922e+003,1.807678e+002
1.411850e+003,1.924373e+002
1.413778e+003,1.981648e+002
1.415707e+003,1.912079e+002
1.417635e+003,1.731441e+002
1.419564e+003,1.609590e+002
1.421492e+003,1.599427e+002
1.423421e+003,1.551464e+002
1.425349e+003,1.389723e+002
1.427278e+003,1.219001e+002
1.429206e+003,1.118405e+002
1.431135e+003,1.087300e+002
1.433063e+003,1.087769e+002
1.434992e+003,1.119734e+002
1.436920e+003,1.184176e+002
1.438849e+003,1.341006e+002
1.440777e+003,1.481979e+002
1.442705e+003,1.517788e+002
1.444634e+003,1.450927e+002
1.446562e+003,1.339988e+002
1.448491e+003,1.137300e+002
1.450419e+003,9.763570e+001
1.452348e+003,8.987222e+001
1.454276e+003,8.563596e+001
1.456205e+003,8.172429e+001
1.458133e+003,7.807059e+001
1.460062e+003,7.443024e+001
1.461990e+003,7.069451e+001
1.463919e+003,6.722540e+001
1.465847e+003,6.305876e+001
1.467776e+003,6.016613e+001
1.469704e+003,6.042406e+001
1.471632e+003,6.315298e+001
1.473561e+003,6.622536e+001
1.475489e+003,6.959528e+001
1.477418e+003,7.308626e+001
1.479346e+003,7.610674e+001
1.481275e+003,7.983136e+001
1.483203e+003,8.620261e+001
1.485132e+003,9.391644e+001
1.487060e+003,9.789225e+001
1.488989e+003,9.716075e+001
1.490917e+003,9.552325e+001
1.492846e+003,9.364989e+001
1.494774e+003,9.116669e+001
1.496703e+003,8.775531e+001
1.498631e+003,8.364430e+001
1.500559e+003,7.940485e+001
1.502488e+003,7.478663e+001
1.504416e+003,7.075235e+001
1.506345e+003,6.646272e+001
1.508273e+003,6.375002e+001
1.510202e+003,6.403910e+001
1.512130e+003,6.614612e+001
1.514059e+003,6.829953e+001
1.515987e+003,7.187688e+001
1.517916e+003,7.123656e+001
1.519844e+003,6.133059e+001
1.521773e+003,5.399444e+001
1.523701e+003,5.397039e+001
1.525630e+003,5.784187e+001
1.527558e+003,6.172130e+001
1.529486e+003,6.569485e+001
1.531415e+003,6.840077e+001
1.533343e+003,6.860548e+001
1.535272e+003,6.918359e+001
1.537200e+003,7.158363e+001
1.539129e+003,7.389256e+001
1.541057e+003,7.373022e+001
1.542986e+003,7.159692e+001
1.544914e+003,7.198729e+001
1.546843e+003,7.695240e+001
1.548771e+003,7.923402e+001
1.550700e+003,7.467250e+001
1.552628e+003,6.963305e+001
1.554557e+003,6.835631e+001
1.556485e+003,6.962241e+001
1.558413e+003,6.991124e+001
1.560342e+003,6.876576e+001
1.562270e+003,6.959679e+001
1.564199e+003,7.558129e+001
1.566127e+003,7.989652e+001
1.568056e+003,7.622346e+001
1.569984e+003,7.068481e+001
1.571913e+003,7.256734e+001
1.573841e+003,8.147979e+001
1.575770e+003,8.637299e+001
1.577698e+003,8.295853e+001
1.579627e+003,8.274183e+001
1.581555e+003,9.461699e+001
1.583484e+003,1.071258e+002
1.585412e+003,1.084322e+002
1.587340e+003,1.022138e+002
1.589269e+003,1.049997e+002
1.591197e+003,1.203120e+002
1.593126e+003,1.332239e+002
1.595054e+003,1.402222e+002
1.596983e+003,1.439693e+002
1.598911e+003,1.456985e+002
1.600840e+003,1.452941e+002
1.602768e+003,1.419784e+002
1.604697e+003,1.354736e+002
1.606625e+003,1.294104e+002
1.608554e+003,1.236248e+002
1.610482e+003,1.194252e+002
1.612411e+003,1.177141e+002
1.614339e+003,1.174321e+002
1.616267e+003,1.181923e+002
1.618196e+003,1.198323e+002
1.620124e+003,1.207801e+002
1.622053e+003,1.214116e+002
1.623981e+003,1.202436e+002
1.625910e+003,1.151797e+002
1.627838e+003,1.101444e+002
1.629767e+003,1.064465e+002
1.631695e+003,1.041427e+002
1.633624e+003,1.039504e+002
1.635552e+003,1.063805e+002
1.637481e+003,1.067859e+002
1.639409e+003,1.030798e+002
1.641338e+003,1.004005e+002
1.643266e+003,1.018960e+002
1.645194e+003,1.032437e+002
1.647123e+003,1.008968e+002
1.649051e+003,9.531721e+001
1.650980e+003,8.912642e+001
1.652908e+003,8.221842e+001
1.654837e+003,7.487206e+001
1.656765e+003,6.376501e+001
1.658694e+003,5.632835e+001
1.660622e+003,5.714438e+001
1.662551e+003,6.176104e+001
1.664479e+003,6.483289e+001
1.666408e+003,6.631707e+001
1.668336e+003,6.786974e+001
1.670265e+003,6.931912e+001
1.672193e+003,7.128607e+001
1.674121e+003,7.461651e+001
1.676050e+003,7.765784e+001
1.677978e+003,7.759192e+001
1.679907e+003,7.719174e+001
1.681835e+003,8.405453e+001
1.683764e+003,1.017048e+002
1.685692e+003,1.085848e+002
1.687621e+003,9.741130e+001
1.689549e+003,8.584407e+001
1.691478e+003,7.530833e+001
1.693406e+003,6.773240e+001
1.695335e+003,6.643793e+001
1.697263e+003,6.918842e+001
1.699192e+003,6.809320e+001
1.701120e+003,6.135142e+001
1.703048e+003,5.736496e+001
1.704977e+003,5.810701e+001
1.706905e+003,5.951043e+001
1.708834e+003,6.084111e+001
1.710762e+003,6.212426e+001
1.712691e+003,6.364300e+001
1.714619e+003,6.520200e+001
1.716548e+003,6.570355e+001
1.718476e+003,6.489893e+001
1.720405e+003,6.403984e+001
1.722333e+003,6.466658e+001
1.724262e+003,6.332348e+001
1.726190e+003,5.634003e+001
1.728119e+003,4.905862e+001
1.730047e+003,4.671089e+001
1.731975e+003,4.880198e+001
1.733904e+003,5.171723e+001
1.735832e+003,5.572965e+001
1.737761e+003,5.969436e+001
1.739689e+003,6.518725e+001
1.741618e+003,6.820600e+001
1.743546e+003,6.569828e+001
1.745475e+003,6.155840e+001
1.747403e+003,5.942576e+001
1.749332e+003,5.907524e+001
1.751260e+003,5.891928e+001
1.753189e+003,5.893324e+001
1.755117e+003,5.918768e+001
1.757046e+003,5.934846e+001
1.758974e+003,6.035915e+001
1.760902e+003,6.438332e+001
1.762831e+003,6.790228e+001
1.764759e+003,6.701541e+001
1.766688e+003,6.276261e+001
1.768616e+003,5.969081e+001
1.770545e+003,5.786954e+001
1.772473e+003,5.732608e+001
1.774402e+003,5.932854e+001
1.776330e+003,6.022204e+001
1.778259e+003,5.761721e+001
1.780187e+003,5.418629e+001
1.782116e+003,5.104712e+001
1.784044e+003,4.893426e+001
1.785973e+003,5.081947e+001
1.787901e+003,5.713935e+001
1.789829e+003,6.079477e+001
1.791758e+003,5.989945e+001
1.793686e+003,5.859351e+001
1.795615e+003,5.810527e+001
1.797543e+003,5.792191e+001
1.799472e+003,5.816345e+001
1.801400e+003,5.825502e+001
1.803329e+003,5.634247e+001
1.805257e+003,5.254771e+001
1.807186e+003,5.191381e+001
1.809114e+003,5.615052e+001
1.811043e+003,5.985095e+001
1.812971e+003,6.156590e+001
1.814900e+003,6.228077e+001
1.816828e+003,6.285108e+001
1.818756e+003,6.257963e+001
1.820685e+003,5.915709e+001
1.822613e+003,5.338874e+001
1.824542e+003,5.231072e+001
1.826470e+003,5.798399e+001
1.828399e+003,6.163047e+001
1.830327e+003,6.069572e+001
1.832256e+003,5.908961e+001
1.834184e+003,5.768718e+001
1.836113e+003,5.671354e+001
1.838041e+003,5.647786e+001
1.839970e+003,5.686624e+001
1.841898e+003,5.754040e+001
1.843827e+003,5.878754e+001
1.845755e+003,5.932047e+001
1.847684e+003,5.828519e+001
1.849612e+003,5.776829e+001
1.851541e+003,5.958976e+001
1.853469e+003,6.039074e+001
1.855397e+003,5.610993e+001
1.857326e+003,5.042844e+001
1.859254e+003,5.022877e+001
1.861183e+003,5.560827e+001
1.863111e+003,5.857640e+001
1.865040e+003,5.755404e+001
1.866968e+003,5.763974e+001
1.868897e+003,6.138397e+001
1.870825e+003,6.337524e+001
1.872754e+003,5.996015e+001
1.874682e+003,5.608451e+001
1.876611e+003,5.639439e+001
1.878539e+003,5.943749e+001
1.880468e+003,6.138380e+001
1.882396e+003,6.228896e+001
1.884324e+003,6.056897e+001
1.886253e+003,5.410858e+001
1.888181e+003,5.093747e+001
1.890110e+003,5.578506e+001
1.892038e+003,6.026085e+001
1.893967e+003,5.852403e+001
1.895895e+003,5.554890e+001
1.897824e+003,5.691436e+001
1.899752e+003,6.121925e+001
1.901681e+003,6.424757e+001
1.903609e+003,6.590723e+001
1.905538e+003,6.612582e+001
1.907466e+003,6.458480e+001
1.909395e+003,6.249093e+001
1.911323e+003,5.982673e+001
1.913251e+003,5.715985e+001
1.915180e+003,5.367516e+001
1.917108e+003,5.107933e+001
1.919037e+003,5.182238e+001
1.920965e+003,5.551993e+001
1.922894e+003,6.040866e+001
1.924822e+003,6.770331e+001
1.926751e+003,7.152419e+001
1.928679e+003,6.950234e+001
1.930608e+003,6.728194e+001
1.932536e+003,6.599465e+001
1.934465e+003,6.466321e+001
1.936393e+003,6.302202e+001
1.938322e+003,6.079441e+001
1.940250e+003,5.648027e+001
1.942178e+003,5.084162e+001
1.944107e+003,4.974430e+001
1.946035e+003,5.435129e+001
1.947964e+003,5.891900e+001
1.949892e+003,6.468398e+001
1.951821e+003,6.732162e+001
1.953749e+003,6.353364e+001
1.955678e+003,5.933329e+001
1.957606e+003,5.733453e+001
1.959535e+003,5.659814e+001
1.961463e+003,5.614413e+001
1.963392e+003,5.606041e+001
1.965320e+003,5.664439e+001
1.967249e+003,5.789991e+001
1.969177e+003,6.029577e+001
1.971105e+003,6.536163e+001
1.973034e+003,6.655743e+001
1.974962e+003,5.810569e+001
1.976891e+003,5.136477e+001
1.978819e+003,5.242243e+001
1.980748e+003,5.664178e+001
1.982676e+003,6.114481e+001
1.984605e+003,6.510967e+001
1.986533e+003,6.656345e+001
1.988462e+003,6.543323e+001
1.990390e+003,6.258567e+001
1.992319e+003,5.250531e+001
1.994247e+003,5.049121e+001
1.996176e+003,6.564890e+001
1.998104e+003,7.613448e+001
2.000032e+003,7.365492e+001
2.001961e+003,6.770540e+001
2.003889e+003,6.181519e+001
2.005818e+003,5.778812e+001
2.007746e+003,5.962191e+001
2.009675e+003,6.609964e+001
2.011603e+003,6.963641e+001
2.013532e+003,6.996452e+001
2.015460e+003,6.996400e+001
2.017389e+003,7.034959e+001
2.019317e+003,6.902294e+001
2.021246e+003,6.440023e+001
2.023174e+003,5.972286e+001
2.025103e+003,5.461939e+001
2.027031e+003,5.196552e+001
2.028959e+003,5.701994e+001
2.030888e+003,6.503265e+001
2.032816e+003,6.534801e+001
2.034745e+003,5.868873e+001
2.036673e+003,5.843758e+001
2.038602e+003,6.875657e+001
2.040530e+003,7.325257e+001
2.042459e+003,6.702834e+001
2.044387e+003,6.205230e+001
2.046316e+003,5.991037e+001
2.048244e+003,5.975610e+001
2.050173e+003,6.327462e+001
2.052101e+003,6.669695e+001
2.054030e+003,6.525890e+001
2.055958e+003,6.145528e+001
2.057886e+003,6.140675e+001
2.059815e+003,6.472420e+001
2.061743e+003,6.706843e+001
2.063672e+003,6.799787e+001
2.065600e+003,7.070940e+001
2.067529e+003,7.760207e+001
2.069457e+003,8.080480e+001
2.071386e+003,7.599402e+001
2.073314e+003,6.974748e+001
2.075243e+003,6.307583e+001
2.077171e+003,5.848722e+001
2.079100e+003,5.947027e+001
2.081028e+003,6.357417e+001
2.082957e+003,6.662730e+001
2.084885e+003,6.855157e+001
2.086813e+003,6.800652e+001
2.088742e+003,6.358064e+001
2.090670e+003,6.086093e+001
2.092599e+003,6.025359e+001
2.094527e+003,6.055410e+001
2.096456e+003,6.296028e+001
2.098384e+003,6.423733e+001
2.100313e+003,6.238508e+001
2.102241e+003,6.000316e+001
2.104170e+003,5.813092e+001
2.106098e+003,5.718908e+001
2.108027e+003,5.851175e+001
2.109955e+003,6.108375e+001
2.111884e+003,6.141805e+001
2.113812e+003,5.949173e+001
2.115740e+003,5.935552e+001
2.117669e+003,6.230235e+001
2.119597e+003,6.358848e+001
2.121526e+003,6.123038e+001
2.123454e+003,5.940430e+001
2.125383e+003,5.894503e+001
2.127311e+003,5.923223e+001
2.129240e+003,6.129254e+001
2.131168e+003,6.265007e+001
2.133097e+003,5.959733e+001
2.135025e+003,5.509659e+001
2.136954e+003,5.479430e+001
2.138882e+003,5.793998e+001
2.140811e+003,6.146080e+001
2.142739e+003,6.529777e+001
2.144667e+003,6.576185e+001
2.146596e+003,6.155771e+001
2.148524e+003,5.872380e+001
2.150453e+003,5.890693e+001
2.152381e+003,5.959762e+001
2.154310e+003,6.004398e+001
2.156238e+003,6.077858e+001
2.158167e+003,6.188660e+001
2.160095e+003,6.358805e+001
2.162024e+003,6.735223e+001
2.163952e+003,7.114523e+001
2.165881e+003,7.044709e+001
2.167809e+003,6.635330e+001
2.169738e+003,6.560997e+001
2.171666e+003,6.827800e+001
2.173594e+003,6.962248e+001
2.175523e+003,6.941523e+001
2.177451e+003,6.729525e+001
2.179380e+003,6.190668e+001
2.181308e+003,5.831203e+001
2.183237e+003,5.816481e+001
2.185165e+003,5.991798e+001
2.187094e+003,6.591479e+001
2.189022e+003,7.024858e+001
2.190951e+003,6.617742e+001
2.192879e+003,5.994397e+001
2.194808e+003,6.041816e+001
2.196736e+003,6.490079e+001
2.198665e+003,6.530386e+001
2.200593e+003,6.180955e+001
2.202521e+003,6.226188e+001
2.204450e+003,6.712636e+001
2.206378e+003,7.028864e+001
2.208307e+003,7.136277e+001
2.210235e+003,6.987685e+001
2.212164e+003,6.336977e+001
2.214092e+003,5.994630e+001
2.216021e+003,6.566048e+001
2.217949e+003,7.058964e+001
2.219878e+003,6.948201e+001
2.221806e+003,6.655963e+001
2.223735e+003,6.358272e+001
2.225663e+003,6.189558e+001
2.227592e+003,6.421019e+001
2.229520e+003,6.898398e+001
2.231448e+003,7.231152e+001
2.233377e+003,7.421210e+001
2.235305e+003,7.478463e+001
2.237234e+003,7.407910e+001
2.239162e+003,7.071166e+001
2.241091e+003,6.340087e+001
2.243019e+003,6.056304e+001
2.244948e+003,6.690669e+001
2.246876e+003,7.038435e+001
2.248805e+003,6.562218e+001
2.250733e+003,6.041032e+001
2.252662e+003,5.431676e+001
2.254590e+003,5.273341e+001
2.256519e+003,6.543316e+001
2.258447e+003,7.818449e+001
2.260375e+003,7.437082e+001
2.262304e+003,6.268105e+001
2.264232e+003,5.640205e+001
2.266161e+003,5.492931e+001
2.268089e+003,5.769521e+001
2.270018e+003,6.401230e+001
2.271946e+003,6.866288e+001
2.273875e+003,7.150746e+001
2.275803e+003,7.113162e+001
2.277732e+003,6.403235e+001
2.279660e+003,6.168462e+001
2.281589e+003,7.107844e+001
2.283517e+003,7.550353e+001
2.285446e+003,6.760052e+001
2.287374e+003,6.107560e+001
2.289302e+003,6.082546e+001
2.291231e+003,6.250031e+001
2.293159e+003,6.521145e+001
2.295088e+003,6.731821e+001
2.297016e+003,6.627701e+001
2.298945e+003,6.463165e+001
2.300873e+003,6.662016e+001
2.302802e+003,7.045674e+001
2.304730e+003,7.213984e+001
2.306659e+003,7.163232e+001
2.308587e+003,6.772248e+001
2.310516e+003,5.936448e+001
2.312444e+003,5.697320e+001
2.314373e+003,6.169134e+001
2.316301e+003,6.577085e+001
2.318229e+003,6.876052e+001
2.320158e+003,7.040680e+001
2.322086e+003,7.077088e+001
2.324015e+003,6.958882e+001
2.325943e+003,6.403530e+001
2.327872e+003,6.090082e+001
2.329800e+003,6.410040e+001
2.331729e+003,6.870358e+001
2.333657e+003,7.339552e+001
2.335586e+003,7.658354e+001
2.337514e+003,7.629139e+001
2.339443e+003,7.414764e+001
2.341371e+003,7.173107e+001
2.343300e+003,6.921774e+001
2.345228e+003,6.567694e+001
2.347156e+003,6.256185e+001
2.349085e+003,6.660366e+001
2.351013e+003,7.682719e+001
2.352942e+003,7.769408e+001
2.354870e+003,6.680860e+001
2.356799e+003,6.228420e+001
2.358727e+003,6.724923e+001
2.360656e+003,6.935902e+001
2.362584e+003,6.680132e+001
2.364513e+003,6.577411e+001
2.366441e+003,6.768656e+001
2.368370e+003,6.982090e+001
2.370298e+003,7.125491e+001
2.372227e+003,7.305127e+001
2.374155e+003,7.744628e+001
2.376083e+003,7.987725e+001
2.378012e+003,7.658231e+001
2.379940e+003,7.220773e+001
2.381869e+003,6.878741e+001
2.383797e+003,6.728937e+001
2.385726e+003,7.020724e+001
2.387654e+003,7.452910e+001
2.389583e+003,7.601746e+001
2.391511e+003,7.570427e+001
2.393440e+003,7.507816e+001
2.395368e+003,7.448679e+001
2.397297e+003,7.505896e+001
2.399225e+003,7.676329e+001
2.401154e+003,7.915397e+001
2.403082e+003,8.209190e+001
2.405010e+003,8.730638e+001
2.406939e+003,9.595641e+001
2.408867e+003,1.005684e+002
2.410796e+003,9.980068e+001
2.412724e+003,9.978623e+001
2.414653e+003,1.010537e+002
2.416581e+003,1.045720e+002
2.418510e+003,1.121336e+002
2.420438e+003,1.188493e+002
2.422367e+003,1.230180e+002
2.424295e+003,1.265199e+002
2.426224e+003,1.292596e+002
2.428152e+003,1.323900e+002
2.430081e+003,1.382407e+002
2.432009e+003,1.425107e+002
2.433938e+003,1.442515e+002
2.435866e+003,1.419226e+002
2.437794e+003,1.314072e+002
2.439723e+003,1.189062e+002
2.441651e+003,1.114519e+002
2.443580e+003,1.061861e+002
2.445508e+003,9.741443e+001
2.447437e+003,8.811387e+001
2.449365e+003,8.616314e+001
2.451294e+003,8.939896e+001
2.453222e+003,8.924319e+001
2.455151e+003,8.682065e+001
2.457079e+003,8.810817e+001
2.459008e+003,9.276131e+001
2.460936e+003,9.494126e+001
2.462865e+003,9.456550e+001
2.464793e+003,9.011041e+001
2.466721e+003,7.779028e+001
2.468650e+003,7.424290e+001
2.470578e+003,8.230513e+001
2.472507e+003,8.745435e+001
2.474435e+003,8.768092e+001
2.476364e+003,8.762769e+001
2.478292e+003,8.828109e+001
2.480221e+003,8.833815e+001
2.482149e+003,8.666049e+001
2.484078e+003,8.574594e+001
2.486006e+003,8.793862e+001
2.487935e+003,8.831077e+001
2.489863e+003,8.364574e+001
2.491792e+003,7.932652e+001
2.493720e+003,7.692799e+001
2.495648e+003,7.588370e+001
2.497577e+003,7.614887e+001
2.499505e+003,7.730381e+001
2.501434e+003,7.897126e+001
2.503362e+003,8.155267e+001
2.505291e+003,8.616643e+001
2.507219e+003,9.108580e+001
2.509148e+003,9.488297e+001
2.511076e+003,9.764873e+001
2.513005e+003,9.993692e+001
2.514933e+003,1.008990e+002
2.516862e+003,9.889388e+001
2.518790e+003,9.496875e+001
2.520719e+003,8.950919e+001
2.522647e+003,8.430574e+001
2.524575e+003,8.565285e+001
2.526504e+003,9.136822e+001
2.528432e+003,9.208986e+001
2.530361e+003,8.876006e+001
2.532289e+003,8.610450e+001
2.534218e+003,8.439697e+001
2.536146e+003,8.536353e+001
2.538075e+003,8.899785e+001
2.540003e+003,9.298119e+001
2.541932e+003,9.817520e+001
2.543860e+003,9.470644e+001
2.545789e+003,8.031297e+001
2.547717e+003,7.272652e+001
2.549646e+003,7.303774e+001
2.551574e+003,7.413326e+001
2.553502e+003,7.558551e+001
2.555431e+003,7.567516e+001
2.557359e+003,7.216495e+001
2.559288e+003,7.311512e+001
2.561216e+003,8.393755e+001
2.563145e+003,8.990182e+001
2.565073e+003,8.850348e+001
2.567002e+003,8.696040e+001
2.568930e+003,8.661864e+001
2.570859e+003,8.568665e+001
2.572787e+003,8.295677e+001
2.574716e+003,8.124960e+001
2.576644e+003,8.177254e+001
2.578573e+003,8.268369e+001
2.580501e+003,8.322550e+001
2.582429e+003,8.456092e+001
2.584358e+003,8.777492e+001
2.586287e+003,9.031135e+001
2.588215e+003,9.129069e+001
2.590144e+003,9.127052e+001
2.592072e+003,8.995223e+001
2.594000e+003,8.857433e+001
2.595929e+003,8.733144e+001
2.597857e+003,8.675750e+001
2.599786e+003,8.744906e+001
2.601714e+003,8.843333e+001
2.603643e+003,8.892654e+001
2.605571e+003,8.983858e+001
2.607500e+003,9.331681e+001
2.609428e+003,9.550671e+001
2.611357e+003,9.211002e+001
2.613285e+003,8.797334e+001
2.615214e+003,8.707916e+001
2.617142e+003,8.722357e+001
2.619071e+003,8.650024e+001
2.620999e+003,8.592812e+001
2.622927e+003,8.668427e+001
2.624856e+003,8.770934e+001
2.626784e+003,8.871705e+001
2.628713e+003,8.862696e+001
2.630641e+003,8.385307e+001
2.632570e+003,7.952502e+001
2.634498e+003,8.334200e+001
2.636427e+003,8.999580e+001
2.638355e+003,9.441275e+001
2.640284e+003,9.637091e+001
2.642212e+003,9.401288e+001
2.644141e+003,9.020476e+001
2.646069e+003,8.984415e+001
2.647998e+003,9.045369e+001
2.649926e+003,8.536720e+001
2.651854e+003,8.036680e+001
2.653783e+003,8.883359e+001
2.655711e+003,1.013223e+002
2.657640e+003,1.017117e+002
2.659568e+003,9.614236e+001
2.661497e+003,9.570579e+001
2.663425e+003,9.802143e+001
2.665354e+003,9.811476e+001
2.667282e+003,9.733990e+001
2.669211e+003,9.946547e+001
2.671139e+003,1.022829e+002
2.673068e+003,9.988605e+001
2.674996e+003,9.584707e+001
2.676925e+003,1.006416e+002
2.678853e+003,1.086262e+002
2.680781e+003,1.038180e+002
2.682710e+003,9.270835e+001
2.684638e+003,9.098386e+001
2.686567e+003,9.525288e+001
2.688495e+003,9.927031e+001
2.690424e+003,1.026089e+002
2.692352e+003,1.040481e+002
2.694281e+003,1.040216e+002
2.696209e+003,1.023387e+002
2.698138e+003,1.006325e+002
2.700066e+003,1.052230e+002
2.701995e+003,1.119275e+002
2.703923e+003,1.103564e+002
2.705852e+003,1.041957e+002
2.707780e+003,1.019091e+002
2.709708e+003,1.024643e+002
2.711637e+003,1.029028e+002
2.713565e+003,1.042952e+002
2.715494e+003,1.127561e+002
2.717422e+003,1.219760e+002
2.719351e+003,1.167615e+002
2.721279e+003,1.043564e+002
2.723208e+003,9.994733e+001
2.725136e+003,1.003998e+002
2.727065e+003,9.829016e+001
2.728993e+003,9.640025e+001
2.730922e+003,1.018483e+002
2.732850e+003,1.104114e+002
2.734779e+003,1.166004e+002
2.736707e+003,1.194014e+002
2.738635e+003,1.143980e+002
2.740564e+003,1.066551e+002
2.742492e+003,1.053916e+002
2.744421e+003,1.074126e+002
2.746349e+003,1.081509e+002
2.748278e+003,1.086142e+002
2.750206e+003,1.098202e+002
2.752135e+003,1.120283e+002
2.754063e+003,1.162958e+002
2.755992e+003,1.211341e+002
2.757920e+003,1.274053e+002
2.759849e+003,1.302009e+002
2.761777e+003,1.202880e+002
2.763706e+003,1.080347e+002
2.765634e+003,1.046882e+002
2.767563e+003,1.058354e+002
2.769491e+003,1.093308e+002
2.771419e+003,1.119808e+002
2.773348e+003,1.085727e+002
2.775276e+003,1.056275e+002
2.777205e+003,1.121248e+002
2.779133e+003,1.175669e+002
2.781062e+003,1.084881e+002
2.782990e+003,1.001660e+002
2.784919e+003,1.077603e+002
2.786847e+003,1.160436e+002
2.788776e+003,1.155401e+002
2.790704e+003,1.124244e+002
2.792633e+003,1.091619e+002
2.794561e+003,1.065884e+002
2.796490e+003,1.035518e+002
2.798418e+003,1.040141e+002
2.800346e+003,1.108556e+002
2.802275e+003,1.193523e+002
2.804203e+003,1.299778e+002
2.806132e+003,1.374170e+002
2.808060e+003,1.388098e+002
2.809989e+003,1.371352e+002
2.811917e+003,1.294078e+002
2.813846e+003,1.277144e+002
2.815774e+003,1.405338e+002
2.817703e+003,1.479385e+002
2.819631e+003,1.385861e+002
2.821560e+003,1.325507e+002
2.823488e+003,1.347988e+002
2.825417e+003,1.365263e+002
2.827345e+003,1.362144e+002
2.829273e+003,1.369937e+002
2.831202e+003,1.401959e+002
2.833130e+003,1.420445e+002
2.835059e+003,1.403332e+002
2.836987e+003,1.418792e+002
2.838916e+003,1.473133e+002
2.840844e+003,1.532689e+002
2.842773e+003,1.599109e+002
2.844701e+003,1.586395e+002
2.846630e+003,1.466330e+002
2.848558e+003,1.426861e+002
2.850487e+003,1.473434e+002
2.852415e+003,1.469023e+002
2.854344e+003,1.421314e+002
2.856272e+003,1.425779e+002
2.858200e+003,1.478877e+002
2.860129e+003,1.529902e+002
2.862057e+003,1.575456e+002
2.863986e+003,1.581823e+002
2.865914e+003,1.569122e+002
2.867843e+003,1.610108e+002
2.869771e+003,1.681612e+002
2.871700e+003,1.733991e+002
2.873628e+003,1.775194e+002
2.875557e+003,1.833525e+002
2.877485e+003,1.881129e+002
2.879414e+003,1.873768e+002
2.881342e+003,1.832304e+002
2.883271e+003,1.745634e+002
2.885199e+003,1.676134e+002
2.887127e+003,1.719517e+002
2.889056e+003,1.767423e+002
2.890984e+003,1.706774e+002
2.892913e+003,1.655142e+002
2.894841e+003,1.688701e+002
2.896770e+003,1.747725e+002
2.898698e+003,1.835411e+002
2.900627e+003,1.880924e+002
2.902555e+003,1.810981e+002
2.904484e+003,1.793736e+002
2.906412e+003,1.880218e+002
2.908341e+003,2.029011e+002
2.910269e+003,2.234778e+002
2.912198e+003,2.480977e+002
2.914126e+003,2.706649e+002
2.916054e+003,3.162572e+002
2.917983e+003,3.868920e+002
2.919911e+003,4.895013e+002
2.921840e+003,6.370397e+002
2.923768e+003,7.750183e+002
2.925697e+003,9.096666e+002
2.927625e+003,9.600247e+002
2.929554e+003,9.289137e+002
2.931482e+003,8.497946e+002
2.933411e+003,7.353737e+002
2.935339e+003,6.547288e+002
2.937268e+003,6.107250e+002
2.939196e+003,6.276730e+002
2.941125e+003,6.868130e+002
2.943053e+003,7.593292e+002
2.944981e+003,8.284156e+002
2.946910e+003,8.652534e+002
2.948838e+003,8.833408e+002
2.950767e+003,9.008563e+002
2.952695e+003,9.076827e+002
2.954624e+003,9.096360e+002
2.956552e+003,8.786964e+002
2.958481e+003,7.806033e+002
2.960409e+003,6.631050e+002
2.962338e+003,5.309048e+002
2.964266e+003,4.215219e+002
2.966195e+003,3.524401e+002
2.968123e+003,2.973740e+002
2.970052e+003,2.440920e+002
2.971980e+003,2.123877e+002
2.973908e+003,2.090720e+002
2.975837e+003,2.067440e+002
2.977765e+003,1.989551e+002
2.979694e+003,2.218811e+002
2.981622e+003,2.906644e+002
2.983551e+003,3.332516e+002
2.985479e+003,3.494442e+002
2.987408e+003,3.272545e+002
2.989336e+003,2.744171e+002
2.991265e+003,2.296871e+002
2.993193e+003,1.937116e+002
2.995122e+003,1.662113e+002
2.997050e+003,1.475781e+002
2.998979e+003,1.432294e+002
3.000907e+003,1.439335e+002
3.002835e+003,1.380955e+002
3.004764e+003,1.310233e+002
3.006692e+003,1.271563e+002
3.008621e+003,1.253376e+002
3.010549e+003,1.256834e+002
3.012478e+003,1.260466e+002
3.014406e+003,1.269724e+002
3.016335e+003,1.249256e+002
3.018263e+003,1.138435e+002
3.020192e+003,1.098525e+002
3.022120e+003,1.174989e+002
3.024049e+003,1.224036e+002
3.025977e+003,1.216106e+002
3.027906e+003,1.189340e+002
3.029834e+003,1.139375e+002
3.031762e+003,1.124533e+002
3.033691e+003,1.143299e+002
3.035619e+003,1.183223e+002
3.037548e+003,1.233445e+002
3.039476e+003,1.245104e+002
3.041405e+003,1.234466e+002
3.043333e+003,1.251570e+002
3.045262e+003,1.263870e+002
3.047190e+003,1.205305e+002
3.049119e+003,1.145123e+002
3.051047e+003,1.161753e+002
3.052976e+003,1.194187e+002
3.054904e+003,1.218227e+002
3.056833e+003,1.219214e+002
3.058761e+003,1.170649e+002
3.060689e+003,1.135787e+002
3.062618e+003,1.149808e+002
3.064546e+003,1.127444e+002
3.066475e+003,1.043174e+002
3.068403e+003,1.034297e+002
3.070332e+003,1.145675e+002
3.072260e+003,1.183838e+002
3.074189e+003,1.148074e+002
3.076117e+003,1.119174e+002
3.078046e+003,1.102469e+002
3.079974e+003,1.125542e+002
3.081903e+003,1.165850e+002
3.083831e+003,1.168414e+002
3.085760e+003,1.160897e+002
3.087688e+003,1.196387e+002
3.089616e+003,1.220472e+002
3.091545e+003,1.154075e+002
3.093473e+003,1.112436e+002
3.095402e+003,1.203891e+002
3.097330e+003,1.260428e+002
3.099259e+003,1.219534e+002
3.101187e+003,1.178047e+002
3.103116e+003,1.168911e+002
3.105044e+003,1.137524e+002
3.106973e+003,1.077330e+002
3.108901e+003,1.065159e+002
3.110830e+003,1.102935e+002
3.112758e+003,1.127618e+002
3.114687e+003,1.140828e+002
3.116615e+003,1.147366e+002
3.118543e+003,1.158193e+002
3.120472e+003,1.215933e+002
3.122400e+003,1.267218e+002
3.124329e+003,1.232307e+002
3.126257e+003,1.185009e+002
3.128186e+003,1.171528e+002
3.130114e+003,1.179550e+002
3.132043e+003,1.229176e+002
3.133971e+003,1.252678e+002
3.135900e+003,1.211929e+002
3.137828e+003,1.200399e+002
3.139757e+003,1.228428e+002
3.141685e+003,1.266717e+002
3.143614e+003,1.312715e+002
3.145542e+003,1.331646e+002
3.147470e+003,1.337288e+002
3.149399e+003,1.455888e+002
3.151327e+003,1.610245e+002
3.153256e+003,1.617513e+002
3.155184e+003,1.594586e+002
3.157113e+003,1.709893e+002
3.159041e+003,1.833719e+002
3.160970e+003,1.860310e+002
3.162898e+003,1.895909e+002
3.164827e+003,2.022758e+002
3.166755e+003,2.089477e+002
3.168684e+003,2.047480e+002
3.170612e+003,2.078284e+002
3.172541e+003,2.228798e+002
3.174469e+003,2.295810e+002
3.176397e+003,2.276493e+002
3.178326e+003,2.199220e+002
3.180254e+003,2.104242e+002
3.182183e+003,2.122852e+002
3.184111e+003,2.191519e+002
3.186040e+003,2.217202e+002
3.187968e+003,2.230235e+002
3.189897e+003,2.263843e+002
3.191825e+003,2.283450e+002
3.193754e+003,2.237241e+002
3.195682e+003,2.246141e+002
3.197611e+003,2.365773e+002
3.199539e+003,2.404870e+002
3.201468e+003,2.315087e+002
3.203396e+003,2.306728e+002
3.205324e+003,2.386792e+002
3.207253e+003,2.426013e+002
3.209181e+003,2.425155e+002
3.211110e+003,2.382536e+002
3.213038e+003,2.313650e+002
3.214967e+003,2.227401e+002
3.216895e+003,2.144578e+002
3.218824e+003,2.070267e+002
3.220752e+003,2.023508e+002
3.222681e+003,2.047687e+002
3.224609e+003,2.031057e+002
3.226538e+003,1.942513e+002
3.228466e+003,1.869565e+002
3.230395e+003,1.824117e+002
3.232323e+003,1.779635e+002
3.234251e+003,1.736708e+002
3.236180e+003,1.715535e+002
3.238108e+003,1.704211e+002
3.240037e+003,1.665377e+002
3.241965e+003,1.636118e+002
3.243894e+003,1.692305e+002
3.245822e+003,1.724687e+002
3.247751e+003,1.645188e+002
3.249679e+003,1.587504e+002
3.251608e+003,1.613796e+002
3.253536e+003,1.641687e+002
3.255465e+003,1.666139e+002
3.257393e+003,1.671839e+002
3.259322e+003,1.658936e+002
3.261250e+003,1.655923e+002
3.263178e+003,1.655994e+002
3.265107e+003,1.624932e+002
3.267035e+003,1.598696e+002
3.268964e+003,1.624978e+002
3.270892e+003,1.669678e+002
3.272821e+003,1.743430e+002
3.274749e+003,1.758533e+002
3.276678e+003,1.659277e+002
3.278606e+003,1.576768e+002
3.280535e+003,1.528191e+002
3.282463e+003,1.512490e+002
3.284392e+003,1.522384e+002
3.286320e+003,1.487478e+002
3.288249e+003,1.437399e+002
3.290177e+003,1.460359e+002
3.292105e+003,1.510533e+002
3.294034e+003,1.543458e+002
3.295962e+003,1.570688e+002
3.297891e+003,1.619766e+002
3.299819e+003,1.619702e+002
3.301748e+003,1.541032e+002
3.303676e+003,1.480357e+002
3.305605e+003,1.452118e+002
3.307533e+003,1.461423e+002
3.309462e+003,1.499307e+002
3.311390e+003,1.510908e+002
3.313319e+003,1.507991e+002
3.315247e+003,1.511758e+002
3.317176e+003,1.511891e+002
3.319104e+003,1.506200e+002
3.321032e+003,1.481381e+002
3.322961e+003,1.404151e+002
3.324889e+003,1.367805e+002
3.326818e+003,1.392367e+002
3.328746e+003,1.397373e+002
3.330675e+003,1.374027e+002
3.332603e+003,1.287907e+002
3.334532e+003,1.176624e+002
3.336460e+003,1.148957e+002
3.338389e+003,1.170712e+002
3.340317e+003,1.260514e+002
3.342246e+003,1.292640e+002
3.344174e+003,1.154417e+002
3.346103e+003,1.051405e+002
3.348031e+003,1.035830e+002
3.349959e+003,1.028639e+002
3.351888e+003,1.022664e+002
3.353816e+003,1.013034e+002
3.355745e+003,1.010485e+002
3.357673e+003,1.065040e+002
3.359602e+003,1.122418e+002
3.361530e+003,1.095546e+002
3.363459e+003,1.060197e+002
3.365387e+003,1.053463e+002
3.367316e+003,1.063143e+002
3.369244e+003,1.099101e+002
3.371173e+003,1.085374e+002
3.373101e+003,1.023649e+002
3.375030e+003,1.114585e+002
3.376958e+003,1.294464e+002
3.378886e+003,1.318605e+002
3.380815e+003,1.289878e+002
3.382743e+003,1.286763e+002
3.384672e+003,1.353554e+002
3.386600e+003,1.572089e+002
3.388529e+003,1.752135e+002
3.390457e+003,1.847055e+002
3.392386e+003,1.955089e+002
3.394314e+003,2.083534e+002
3.396243e+003,2.287888e+002
3.398171e+003,2.483859e+002
3.400100e+003,2.474344e+002
3.402028e+003,2.348442e+002
3.403957e+003,2.121978e+002
3.405885e+003,1.955798e+002
3.407813e+003,1.967644e+002
3.409742e+003,1.925911e+002
3.411670e+003,1.787823e+002
3.413599e+003,1.615779e+002
3.415527e+003,1.426293e+002
3.417456e+003,1.300198e+002
3.419384e+003,1.217182e+002
3.421313e+003,1.162216e+002
3.423241e+003,1.094365e+002
3.425170e+003,9.467510e+001
3.427098e+003,8.495450e+001
3.429027e+003,8.457208e+001
3.430955e+003,8.800903e+001
3.432884e+003,9.475340e+001
3.434812e+003,9.208006e+001
3.436740e+003,8.319342e+001
3.438669e+003,8.029159e+001
3.440597e+003,7.886720e+001
3.442526e+003,7.300881e+001
3.444454e+003,6.871925e+001
3.446383e+003,6.916751e+001
3.448311e+003,6.973235e+001
3.450240e+003,6.942167e+001
3.452168e+003,6.937318e+001
3.454097e+003,6.924266e+001
3.456025e+003,6.527699e+001
3.457954e+003,6.116629e+001
3.459882e+003,6.294890e+001
3.461811e+003,6.671130e+001
3.463739e+003,7.131342e+001
3.465667e+003,7.393201e+001
3.467596e+003,7.355965e+001
3.469524e+003,6.963826e+001
3.471453e+003,6.343961e+001
3.473381e+003,6.952643e+001
3.475310e+003,7.951134e+001
3.477238e+003,7.553788e+001
3.479167e+003,6.721526e+001
3.481095e+003,5.790670e+001
3.483024e+003,5.461714e+001
3.484952e+003,6.166808e+001
3.486881e+003,6.579304e+001
3.488809e+003,6.612811e+001
3.490738e+003,6.527297e+001
3.492666e+003,6.443793e+001
3.494594e+003,6.786983e+001
3.496523e+003,7.080539e+001
3.498451e+003,6.823218e+001
3.500380e+003,6.623734e+001
3.502308e+003,6.646407e+001
3.504237e+003,6.770125e+001
3.506165e+003,6.976574e+001
3.508094e+003,6.844621e+001
3.510022e+003,6.544329e+001
3.511951e+003,6.625333e+001
3.513879e+003,6.590984e+001
3.515808e+003,5.558581e+001
3.517736e+003,5.247701e+001
3.519665e+003,6.317527e+001
3.521593e+003,7.029134e+001
3.523521e+003,7.218114e+001
3.525450e+003,6.865601e+001
3.527378e+003,6.231303e+001
3.529307e+003,5.580293e+001
3.531235e+003,5.351051e+001
3.533164e+003,6.253775e+001
3.535092e+003,6.705657e+001
3.537021e+003,5.954821e+001
3.538949e+003,5.815442e+001
3.540878e+003,6.243428e+001
3.542806e+003,6.346704e+001
3.544735e+003,6.202312e+001
3.546663e+003,5.730721e+001
3.548592e+003,5.424072e+001
3.550520e+003,5.744798e+001
3.552448e+003,5.711210e+001
3.554377e+003,4.944152e+001
3.556305e+003,4.773991e+001
3.558234e+003,5.100699e+001
3.560162e+003,5.340038e+001
3.562091e+003,5.542495e+001
3.564019e+003,5.824384e+001
3.565948e+003,6.010508e+001
3.567876e+003,5.925553e+001
3.569805e+003,5.943778e+001
3.571733e+003,6.091486e+001
3.573662e+003,6.289856e+001
3.575590e+003,6.432088e+001
3.577519e+003,6.106372e+001
3.579447e+003,5.771840e+001
3.581376e+003,5.761766e+001
3.583304e+003,5.951311e+001
3.585233e+003,6.363960e+001
3.587161e+003,6.738281e+001
3.589090e+003,6.953178e+001
3.591018e+003,6.046962e+001
3.592947e+003,4.969482e+001
3.594875e+003,5.405445e+001
3.596803e+003,5.929016e+001
3.598732e+003,5.631843e+001
3.600660e+003,5.591732e+001
3.602589e+003,5.919337e+001
3.604517e+003,6.528063e+001
3.606446e+003,6.898576e+001
3.608374e+003,4.408264e+001
3.610303e+003,2.351102e+001
3.612231e+003,4.234834e+001
3.614160e+003,5.815396e+001
3.616088e+003,6.084577e+001
3.618017e+003,6.245523e+001
3.619945e+003,6.377620e+001
3.621874e+003,6.141333e+001
3.623802e+003,5.849326e+001
3.625730e+003,6.033741e+001
3.627659e+003,6.017653e+001
3.629587e+003,5.362219e+001
3.631516e+003,5.054780e+001
3.633444e+003,5.222154e+001
3.635373e+003,5.068025e+001
3.637301e+003,4.945252e+001
3.639230e+003,5.974030e+001
3.641158e+003,6.700402e+001
3.643087e+003,5.722408e+001
3.645015e+003,5.199704e+001
3.646944e+003,5.463400e+001
3.648872e+003,5.152525e+001
3.650801e+003,4.576365e+001
3.652729e+003,5.032999e+001
3.654657e+003,5.805339e+001
3.656586e+003,6.770123e+001
3.658514e+003,6.763142e+001
3.660443e+003,5.379609e+001
3.662371e+003,4.940217e+001
3.664300e+003,5.415479e+001
3.666228e+003,6.651197e+001
3.668157e+003,7.474261e+001
3.670085e+003,6.151911e+001
3.672014e+003,5.067204e+001
3.673942e+003,4.883894e+001
3.675871e+003,5.059465e+001
3.677799e+003,5.455528e+001
3.679728e+003,5.507536e+001
3.681656e+003,5.428658e+001
3.683584e+003,5.441039e+001
3.685513e+003,5.486264e+001
3.687441e+003,5.493339e+001
3.689370e+003,5.914939e+001
3.691298e+003,6.706831e+001
3.693227e+003,6.819402e+001
3.695155e+003,6.435361e+001
3.697084e+003,5.401331e+001
3.699012e+003,4.927184e+001
3.700941e+003,5.691897e+001
3.702869e+003,6.025863e+001
3.704798e+003,5.798686e+001
3.706726e+003,6.110796e+001
3.708655e+003,6.472234e+001
3.710583e+003,6.019298e+001
3.712511e+003,5.712305e+001
3.714440e+003,6.037635e+001
3.716368e+003,6.246276e+001
3.718297e+003,6.257154e+001
3.720225e+003,6.004440e+001
3.722154e+003,5.855041e+001
3.724082e+003,6.649955e+001
3.726011e+003,7.036090e+001
3.727939e+003,6.256355e+001
3.729868e+003,5.865749e+001
3.731796e+003,5.961925e+001
3.733725e+003,5.915474e+001
3.735653e+003,5.767916e+001
3.737582e+003,5.394466e+001
3.739510e+003,5.355671e+001
3.741438e+003,6.045679e+001
3.743367e+003,6.105565e+001
3.745295e+003,5.596198e+001
3.747224e+003,5.799284e+001
3.749152e+003,6.204234e+001
3.751081e+003,6.440226e+001
3.753009e+003,6.141044e+001
3.754938e+003,4.953430e+001
3.756866e+003,4.919947e+001
3.758795e+003,5.780938e+001
3.760723e+003,5.808055e+001
3.762652e+003,5.528191e+001
3.764580e+003,5.265144e+001
3.766509e+003,5.313215e+001
3.768437e+003,5.799186e+001
3.770365e+003,5.839774e+001
3.772294e+003,5.568973e+001
3.774222e+003,5.495846e+001
3.776151e+003,5.431391e+001
3.778079e+003,5.132786e+001
3.780008e+003,5.161522e+001
3.781936e+003,5.606368e+001
3.783865e+003,5.406656e+001
3.785793e+003,4.925113e+001
3.787722e+003,4.852027e+001
3.789650e+003,5.010924e+001
3.791579e+003,5.379350e+001
3.793507e+003,5.803017e+001
3.795436e+003,6.216311e+001
3.797364e+003,5.653323e+001
3.799292e+003,4.979355e+001
3.801221e+003,5.690481e+001
3.803149e+003,6.056804e+001
3.805078e+003,5.247241e+001
3.807006e+003,5.405886e+001
3.808935e+003,6.144623e+001
3.810863e+003,5.046667e+001
3.812792e+003,3.974328e+001
3.814720e+003,4.893413e+001
3.816649e+003,5.430640e+001
3.818577e+003,4.932615e+001
3.820506e+003,5.462104e+001
3.822434e+003,6.276723e+001
3.824363e+003,5.650593e+001
3.826291e+003,4.988732e+001
3.828219e+003,5.043993e+001
3.830148e+003,4.966948e+001
3.832076e+003,4.703443e+001
3.834005e+003,4.971468e+001
3.835933e+003,5.332064e+001
3.837862e+003,5.033158e+001
3.839790e+003,5.368250e+001
3.841719e+003,6.778711e+001
3.843647e+003,6.187257e+001
3.845576e+003,4.440981e+001
3.847504e+003,4.436327e+001
3.849433e+003,4.821111e+001
3.851361e+003,4.707753e+001
3.853290e+003,4.915624e+001
3.855218e+003,5.446941e+001
3.857146e+003,5.488405e+001
3.859075e+003,5.216161e+001
3.861003e+003,4.647697e+001
3.862932e+003,4.470098e+001
3.864860e+003,5.076115e+001
3.866789e+003,5.331487e+001
3.868717e+003,5.404150e+001
3.870646e+003,6.223580e+001
3.872574e+003,6.558141e+001
3.874503e+003,5.347403e+001
3.876431e+003,4.757651e+001
3.878360e+003,4.992278e+001
3.880288e+003,5.356993e+001
3.882217e+003,5.576886e+001
3.884145e+003,5.063952e+001
3.886073e+003,4.837297e+001
3.888002e+003,5.310070e+001
3.889930e+003,4.733101e+001
3.891859e+003,3.869223e+001
3.893787e+003,5.263686e+001
3.895716e+003,6.216970e+001
3.897644e+003,4.958389e+001
3.899573e+003,4.797483e+001
3.901501e+003,5.842264e+001
3.903430e+003,5.791105e+001
3.905358e+003,5.405247e+001
3.907287e+003,5.532495e+001
3.909215e+003,5.213716e+001
3.911144e+003,4.323027e+001
3.913072e+003,4.224241e+001
3.915000e+003,4.677841e+001
3.916929e+003,5.512822e+001
3.918857e+003,6.023564e+001
3.920786e+003,5.872843e+001
3.922714e+003,5.444135e+001
3.924643e+003,4.845871e+001
3.926571e+003,4.105890e+001
3.928500e+003,3.899105e+001
3.930428e+003,4.907499e+001
3.932357e+003,5.300017e+001
3.934285e+003,5.006170e+001
3.936214e+003,4.975951e+001
3.938142e+003,4.977203e+001
3.940071e+003,4.774311e+001
3.941999e+003,4.449596e+001
3.943927e+003,3.980091e+001
3.945856e+003,4.181820e+001
3.947784e+003,4.695119e+001
3.949713e+003,5.156217e+001
3.951641e+003,5.219993e+001
3.953570e+003,4.755496e+001
3.955498e+003,5.039947e+001
3.957427e+003,5.635973e+001
3.959355e+003,5.036419e+001
3.961284e+003,4.579578e+001
3.963212e+003,5.152877e+001
3.965141e+003,5.177470e+001
3.967069e+003,4.816930e+001
3.968998e+003,5.198410e+001
3.970926e+003,5.673209e+001
3.972854e+003,5.812229e+001
3.974783e+003,5.862993e+001
3.976711e+003,5.845309e+001
3.978640e+003,5.726126e+001
3.980568e+003,5.346743e+001
3.982497e+003,4.268253e+001
3.984425e+003,3.799672e+001
3.986354e+003,4.208349e+001
3.988282e+003,4.951394e+001
3.990211e+003,5.618163e+001
3.992139e+003,5.718121e+001
3.994068e+003,5.422491e+001
3.995996e+003,4.773614e+001
3.997925e+003,4.709029e+001
3.999853e+003,4.955877e+001
4.001781e+003,5.023574e+001
4.003710e+003,5.198793e+001
4.005638e+003,5.603288e+001
4.007567e+003,5.634066e+001
4.009495e+003,5.396017e+001
4.011424e+003,5.044719e+001
4.013352e+003,4.732525e+001
4.015281e+003,4.338178e+001
4.017209e+003,4.971367e+001
4.019138e+003,5.949659e+001
4.021066e+003,5.277835e+001
4.022995e+003,4.779909e+001
4.024923e+003,5.323633e+001
4.026852e+003,5.881747e+001
4.028780e+003,6.137922e+001
4.030708e+003,4.762739e+001
4.032637e+003,3.853841e+001
4.034565e+003,4.738625e+001
4.036494e+003,5.486957e+001
4.038422e+003,5.831466e+001
4.040351e+003,5.137060e+001
4.042279e+003,4.396923e+001
4.044208e+003,4.270922e+001
4.046136e+003,4.215186e+001
4.048065e+003,4.210085e+001
4.049993e+003,4.119641e+001
4.051922e+003,4.489231e+001
4.053850e+003,5.939551e+001
4.055779e+003,6.316090e+001
4.057707e+003,5.633193e+001
4.059635e+003,4.426806e+001
4.061564e+003,3.838618e+001
4.063492e+003,4.984154e+001
4.065421e+003,4.955600e+001
4.067349e+003,3.889154e+001
4.069278e+003,4.670702e+001
4.071206e+003,5.339300e+001
4.073135e+003,3.840036e+001
4.075063e+003,3.940703e+001
4.076992e+003,5.339147e+001
4.078920e+003,5.306631e+001
4.080849e+003,4.918387e+001
4.082777e+003,4.818977e+001
4.084706e+003,4.784687e+001
4.086634e+003,4.830745e+001
4.088563e+003,5.176894e+001
4.090491e+003,5.560529e+001
4.092419e+003,5.976397e+001
4.094348e+003,5.198188e+001
4.096276e+003,3.755580e+001
4.098205e+003,4.310538e+001
4.100133e+003,5.043552e+001
4.102062e+003,4.996795e+001
4.103990e+003,4.680875e+001
4.105919e+003,4.334997e+001
4.107847e+003,4.712705e+001
4.109776e+003,5.134185e+001
4.111704e+003,5.171149e+001
4.113633e+003,5.432327e+001
4.115561e+003,5.802586e+001
4.117490e+003,6.142752e+001
4.119418e+003,6.052596e+001
4.121347e+003,5.328883e+001
4.123275e+003,4.645654e+001
4.125204e+003,4.400933e+001
4.127132e+003,5.815529e+001
4.129061e+003,6.473971e+001
4.130989e+003,5.707920e+001
4.132917e+003,5.274894e+001
4.134846e+003,4.968964e+001
4.136774e+003,4.032140e+001
4.138703e+003,4.005698e+001
4.140631e+003,5.296574e+001
4.142560e+003,5.616848e+001
4.144488e+003,5.415360e+001
4.146417e+003,5.205411e+001
4.148345e+003,4.594091e+001
4.150273e+003,3.569216e+001
4.152202e+003,3.372076e+001
4.154130e+003,3.748707e+001
4.156059e+003,5.037412e+001
4.157987e+003,5.057610e+001
4.159916e+003,4.017945e+001
4.161844e+003,4.622787e+001
4.163773e+003,5.382920e+001
4.165701e+003,5.189213e+001
4.167630e+003,5.377931e+001
4.169558e+003,5.679901e+001
4.171487e+003,4.809692e+001
4.173415e+003,4.359464e+001
4.175344e+003,5.077436e+001
4.177272e+003,4.975457e+001
4.179201e+003,4.376925e+001
4.181129e+003,3.906571e+001
4.183058e+003,4.016284e+001
4.184986e+003,4.747977e+001
4.186915e+003,3.674563e+001
4.188843e+003,2.510765e+001
4.190771e+003,3.703921e+001
4.192700e+003,4.306740e+001
4.194628e+003,3.923907e+001
4.196557e+003,4.266787e+001
4.198485e+003,4.838367e+001
4.200414e+003,5.406634e+001
4.202342e+003,5.265124e+001
4.204271e+003,4.635826e+001
4.206199e+003,4.831416e+001
4.208127e+003,4.868430e+001
4.210056e+003,4.168339e+001
4.211984e+003,3.835639e+001
4.213913e+003,3.811723e+001
4.215841e+003,3.855921e+001
4.217770e+003,4.246381e+001
4.219698e+003,5.132743e+001
4.221627e+003,5.567384e+001
4.223555e+003,5.652875e+001
4.225484e+003,5.301345e+001
4.227412e+003,5.206594e+001
4.229341e+003,5.361777e+001
4.231269e+003,5.088509e+001
4.233198e+003,4.638324e+001
4.235126e+003,3.836964e+001
4.237055e+003,4.321179e+001
4.238983e+003,5.391832e+001
4.240912e+003,5.001003e+001
4.242840e+003,4.909212e+001
4.244769e+003,5.853858e+001
4.246697e+003,4.751979e+001
4.248625e+003,3.349296e+001
4.250554e+003,3.448698e+001
