1.159199e+002,1.133713e+003
1.178484e+002,1.228461e+003
1.197769e+002,1.299783e+003
1.217053e+002,1.346329e+003
1.236338e+002,1.351841e+003
1.255623e+002,1.298510e+003
1.274907e+002,1.214433e+003
1.294192e+002,1.125844e+003
1.313477e+002,1.012150e+003
1.332761e+002,9.188547e+002
1.352046e+002,8.632198e+002
1.371331e+002,8.517394e+002
1.390615e+002,8.455424e+002
1.409900e+002,8.334661e+002
1.429185e+002,8.236298e+002
1.448469e+002,8.353118e+002
1.467754e+002,8.851204e+002
1.487039e+002,9.387333e+002
1.506323e+002,9.883521e+002
1.525608e+002,1.040370e+003
1.544893e+002,1.061315e+003
1.564177e+002,1.052306e+003
1.583462e+002,1.016460e+003
1.602747e+002,9.494135e+002
1.622031e+002,8.275924e+002
1.641316e+002,7.051378e+002
1.660601e+002,6.089963e+002
1.679885e+002,5.413394e+002
1.699170e+002,4.890932e+002
1.718455e+002,4.484751e+002
1.737739e+002,4.199068e+002
1.757024e+002,3.983812e+002
1.776309e+002,3.854990e+002
1.795593e+002,3.781318e+002
1.814878e+002,3.734890e+002
1.834163e+002,3.785902e+002
1.853447e+002,3.792357e+002
1.872732e+002,3.715876e+002
1.892017e+002,3.565849e+002
1.911301e+002,3.412032e+002
1.930586e+002,3.242887e+002
1.949871e+002,3.081854e+002
1.969155e+002,2.965080e+002
1.988440e+002,2.929417e+002
2.007725e+002,2.894746e+002
2.027009e+002,2.826283e+002
2.046294e+002,2.717504e+002
2.065579e+002,2.640765e+002
2.084864e+002,2.618553e+002
2.104148e+002,2.630516e+002
2.123433e+002,2.631024e+002
2.142718e+002,2.591864e+002
2.162002e+002,2.571275e+002
2.181287e+002,2.594994e+002
2.200572e+002,2.682906e+002
2.219856e+002,2.762380e+002
2.239141e+002,2.851891e+002
2.258426e+002,2.926694e+002
2.277710e+002,2.937462e+002
2.296995e+002,2.836660e+002
2.316280e+002,2.724669e+002
2.335564e+002,2.647882e+002
2.354849e+002,2.628952e+002
2.374134e+002,2.620569e+002
2.393418e+002,2.636465e+002
2.412703e+002,2.662932e+002
2.431988e+002,2.669872e+002
2.451272e+002,2.615484e+002
2.470557e+002,2.569048e+002
2.489842e+002,2.569115e+002
2.509126e+002,2.641769e+002
2.528411e+002,2.704538e+002
2.547696e+002,2.746902e+002
2.566980e+002,2.772236e+002
2.586265e+002,2.784845e+002
2.605550e+002,2.783714e+002
2.624834e+002,2.772948e+002
2.644119e+002,2.751958e+002
2.663404e+002,2.720109e+002
2.682688e+002,2.684799e+002
2.701973e+002,2.632284e+002
2.721258e+002,2.570271e+002
2.740542e+002,2.545307e+002
2.759827e+002,2.583400e+002
2.779112e+002,2.633357e+002
2.798396e+002,2.665238e+002
2.817681e+002,2.674785e+002
2.836966e+002,2.690529e+002
2.856250e+002,2.732328e+002
2.875535e+002,2.790462e+002
2.894820e+002,2.818857e+002
2.914104e+002,2.825850e+002
2.933389e+002,2.805988e+002
2.952674e+002,2.745026e+002
2.971958e+002,2.627188e+002
2.991243e+002,2.546607e+002
3.010528e+002,2.529206e+002
3.029813e+002,2.559386e+002
3.049097e+002,2.587368e+002
3.068382e+002,2.616689e+002
3.087667e+002,2.636813e+002
3.106951e+002,2.636594e+002
3.126236e+002,2.601022e+002
3.145521e+002,2.591292e+002
3.164805e+002,2.628830e+002
3.184090e+002,2.693540e+002
3.203375e+002,2.743491e+002
3.222659e+002,2.778027e+002
3.241944e+002,2.801071e+002
3.261229e+002,2.808661e+002
3.280513e+002,2.779574e+002
3.299798e+002,2.794710e+002
3.319083e+002,2.887898e+002
3.338367e+002,3.012206e+002
3.357652e+002,3.105795e+002
3.376937e+002,3.162977e+002
3.396221e+002,3.193302e+002
3.415506e+002,3.207365e+002
3.434791e+002,3.207315e+002
3.454075e+002,3.164413e+002
3.473360e+002,3.023513e+002
3.492645e+002,2.873572e+002
3.511929e+002,2.790708e+002
3.531214e+002,2.810691e+002
3.550499e+002,2.833755e+002
3.569783e+002,2.837250e+002
3.589068e+002,2.820640e+002
3.608353e+002,2.798843e+002
3.627637e+002,2.734917e+002
3.646922e+002,2.696631e+002
3.666207e+002,2.728028e+002
3.685491e+002,2.882916e+002
3.704776e+002,2.994505e+002
3.724061e+002,3.002086e+002
3.743345e+002,2.942409e+002
3.762630e+002,2.949582e+002
3.781915e+002,3.078444e+002
3.801199e+002,3.211280e+002
3.820484e+002,3.295533e+002
3.839769e+002,3.313375e+002
3.859053e+002,3.315467e+002
3.878338e+002,3.292801e+002
3.897623e+002,3.257149e+002
3.916907e+002,3.226609e+002
3.936192e+002,3.196176e+002
3.955477e+002,3.176973e+002
3.974761e+002,3.170859e+002
3.994046e+002,3.179150e+002
4.013331e+002,3.198995e+002
4.032615e+002,3.237781e+002
4.051900e+002,3.284994e+002
4.071185e+002,3.332113e+002
4.090469e+002,3.378995e+002
4.109754e+002,3.431739e+002
4.129039e+002,3.511222e+002
4.148323e+002,3.607305e+002
4.167608e+002,3.650980e+002
4.186893e+002,3.612593e+002
4.206177e+002,3.551182e+002
4.225462e+002,3.487663e+002
4.244747e+002,3.419578e+002
4.264032e+002,3.358051e+002
4.283316e+002,3.289037e+002
4.302601e+002,3.229458e+002
4.321886e+002,3.211488e+002
4.341170e+002,3.235360e+002
4.360455e+002,3.291565e+002
4.379740e+002,3.399411e+002
4.399024e+002,3.553176e+002
4.418309e+002,3.673492e+002
4.437594e+002,3.737083e+002
4.456878e+002,3.778123e+002
4.476163e+002,3.814034e+002
4.495448e+002,3.840647e+002
4.514732e+002,3.873967e+002
4.534017e+002,3.948842e+002
4.553302e+002,4.033764e+002
4.572586e+002,4.050818e+002
4.591871e+002,3.917805e+002
4.611156e+002,3.795116e+002
4.630440e+002,3.739429e+002
4.649725e+002,3.749525e+002
4.669010e+002,3.752806e+002
4.688294e+002,3.708991e+002
4.707579e+002,3.674242e+002
4.726864e+002,3.693350e+002
4.746148e+002,3.833467e+002
4.765433e+002,3.947875e+002
4.784718e+002,3.999456e+002
4.804002e+002,4.016066e+002
4.823287e+002,4.073484e+002
4.842572e+002,4.216492e+002
4.861856e+002,4.347078e+002
4.881141e+002,4.426479e+002
4.900426e+002,4.442919e+002
4.919710e+002,4.445155e+002
4.938995e+002,4.405366e+002
4.958280e+002,4.370665e+002
4.977564e+002,4.394595e+002
4.996849e+002,4.513429e+002
5.016134e+002,4.584243e+002
5.035418e+002,4.529576e+002
5.054703e+002,4.389704e+002
5.073988e+002,4.337553e+002
5.093272e+002,4.436513e+002
5.112557e+002,4.546917e+002
5.131842e+002,4.620165e+002
5.151127e+002,4.659091e+002
5.170411e+002,4.680110e+002
5.189696e+002,4.689392e+002
5.208981e+002,4.679818e+002
5.228265e+002,4.645603e+002
5.247550e+002,4.596548e+002
5.266835e+002,4.507823e+002
5.286119e+002,4.302918e+002
5.305404e+002,4.066454e+002
5.324689e+002,3.948746e+002
5.343973e+002,4.058294e+002
5.363258e+002,4.177910e+002
5.382543e+002,4.242963e+002
5.401827e+002,4.245945e+002
5.421112e+002,4.254633e+002
5.440397e+002,4.267412e+002
5.459681e+002,4.284023e+002
5.478966e+002,4.311321e+002
5.498251e+002,4.364282e+002
5.517535e+002,4.377406e+002
5.536820e+002,4.283849e+002
5.556105e+002,4.170002e+002
5.575389e+002,4.186321e+002
5.594674e+002,4.382720e+002
5.613959e+002,4.587876e+002
5.633243e+002,4.789482e+002
5.652528e+002,4.974244e+002
5.671813e+002,5.050651e+002
5.691097e+002,4.892361e+002
5.710382e+002,4.728481e+002
5.729667e+002,4.634544e+002
5.748951e+002,4.612462e+002
5.768236e+002,4.651944e+002
5.787521e+002,4.783679e+002
5.806805e+002,4.959182e+002
5.826090e+002,5.157482e+002
5.845375e+002,5.463956e+002
5.864659e+002,5.610835e+002
5.883944e+002,5.525376e+002
5.903229e+002,5.276623e+002
5.922513e+002,4.990367e+002
5.941798e+002,4.620080e+002
5.961083e+002,4.312607e+002
5.980367e+002,4.123427e+002
5.999652e+002,4.042826e+002
6.018937e+002,4.012392e+002
6.038221e+002,4.037636e+002
6.057506e+002,4.103722e+002
6.076791e+002,4.205451e+002
6.096075e+002,4.340856e+002
6.115360e+002,4.524135e+002
6.134645e+002,4.857884e+002
6.153929e+002,5.162608e+002
6.173214e+002,5.312889e+002
6.192499e+002,5.266725e+002
6.211783e+002,5.129523e+002
6.231068e+002,4.822919e+002
6.250353e+002,4.464497e+002
6.269637e+002,4.239524e+002
6.288922e+002,4.186253e+002
6.308207e+002,4.157984e+002
6.327491e+002,4.106290e+002
6.346776e+002,4.038606e+002
6.366061e+002,3.990054e+002
6.385345e+002,3.928936e+002
6.404630e+002,3.913423e+002
6.423915e+002,4.005175e+002
6.443199e+002,4.185009e+002
6.462484e+002,4.282399e+002
6.481769e+002,4.212330e+002
6.501053e+002,4.126826e+002
6.520338e+002,4.117196e+002
6.539623e+002,4.231485e+002
6.558907e+002,4.287806e+002
6.578192e+002,4.218193e+002
6.597477e+002,4.132483e+002
6.616761e+002,4.145440e+002
6.636046e+002,4.271680e+002
6.655331e+002,4.389672e+002
6.674615e+002,4.467814e+002
6.693900e+002,4.520427e+002
6.713185e+002,4.563539e+002
6.732469e+002,4.611954e+002
6.751754e+002,4.633851e+002
6.771039e+002,4.608892e+002
6.790323e+002,4.554803e+002
6.809608e+002,4.513796e+002
6.828893e+002,4.463210e+002
6.848177e+002,4.464881e+002
6.867462e+002,4.550746e+002
6.886747e+002,4.715611e+002
6.906031e+002,4.881517e+002
6.925316e+002,5.080818e+002
6.944601e+002,5.250741e+002
6.963885e+002,5.389568e+002
6.983170e+002,5.492280e+002
7.002455e+002,5.469908e+002
7.021740e+002,5.205890e+002
7.041024e+002,4.912137e+002
7.060309e+002,4.706163e+002
7.079594e+002,4.603121e+002
7.098878e+002,4.545094e+002
7.118163e+002,4.552454e+002
7.137448e+002,4.582549e+002
7.156732e+002,4.589034e+002
7.176017e+002,4.560955e+002
7.195302e+002,4.580426e+002
7.214586e+002,4.641057e+002
7.233871e+002,4.776631e+002
7.253156e+002,5.037515e+002
7.272440e+002,5.550135e+002
7.291725e+002,5.980410e+002
7.311010e+002,6.246824e+002
7.330294e+002,6.424371e+002
7.349579e+002,6.595833e+002
7.368864e+002,6.623898e+002
7.388149e+002,6.949675e+002
7.407433e+002,8.027487e+002
7.426718e+002,9.487200e+002
7.446003e+002,1.051075e+003
7.465287e+002,1.105919e+003
7.484572e+002,1.114960e+003
7.503857e+002,1.056093e+003
7.523141e+002,9.452639e+002
7.542426e+002,8.528140e+002
7.561711e+002,7.821060e+002
7.580995e+002,7.238869e+002
7.600280e+002,6.745010e+002
7.619565e+002,6.336817e+002
7.638849e+002,6.039457e+002
7.658134e+002,5.938209e+002
7.677419e+002,5.867891e+002
7.696703e+002,5.807468e+002
7.715988e+002,5.751066e+002
7.735273e+002,5.609701e+002
7.754557e+002,5.278762e+002
7.773842e+002,4.977946e+002
7.793127e+002,4.834644e+002
7.812411e+002,4.837403e+002
7.831696e+002,4.824332e+002
7.850981e+002,4.715599e+002
7.870266e+002,4.647155e+002
7.889550e+002,4.704891e+002
7.908835e+002,4.921408e+002
7.928120e+002,5.068567e+002
7.947404e+002,5.105747e+002
7.966689e+002,5.107553e+002
7.985974e+002,5.119192e+002
8.005258e+002,5.140684e+002
8.024543e+002,5.127530e+002
8.043828e+002,5.016187e+002
8.063112e+002,4.907085e+002
8.082397e+002,4.860248e+002
8.101682e+002,4.899882e+002
8.120966e+002,4.922434e+002
8.140251e+002,4.889458e+002
8.159536e+002,4.870043e+002
8.178820e+002,4.906321e+002
8.198105e+002,4.996602e+002
8.217390e+002,5.142087e+002
8.236674e+002,5.414248e+002
8.255959e+002,5.695579e+002
8.275244e+002,5.919877e+002
8.294528e+002,6.076421e+002
8.313813e+002,6.195939e+002
8.333098e+002,6.263572e+002
8.352382e+002,6.304383e+002
8.371667e+002,6.333092e+002
8.390952e+002,6.349199e+002
8.410236e+002,6.357560e+002
8.429521e+002,6.300997e+002
8.448806e+002,6.284767e+002
8.468090e+002,6.391844e+002
8.487375e+002,6.688508e+002
8.506660e+002,6.938972e+002
8.525944e+002,7.076403e+002
8.545229e+002,7.214725e+002
8.564514e+002,7.429444e+002
8.583798e+002,7.714146e+002
8.603083e+002,8.109326e+002
8.622368e+002,8.916369e+002
8.641652e+002,9.565727e+002
8.660937e+002,9.677175e+002
8.680222e+002,9.158536e+002
8.699506e+002,8.507685e+002
8.718791e+002,7.574596e+002
8.738076e+002,6.677281e+002
8.757360e+002,6.034096e+002
8.776645e+002,5.671889e+002
8.795930e+002,5.366985e+002
8.815214e+002,5.093740e+002
8.834499e+002,4.894040e+002
8.853784e+002,4.806131e+002
8.873068e+002,4.830741e+002
8.892353e+002,4.857785e+002
8.911638e+002,4.840290e+002
8.930922e+002,4.850033e+002
8.950207e+002,4.953748e+002
8.969492e+002,5.171855e+002
8.988776e+002,5.261153e+002
9.008061e+002,5.073087e+002
9.027346e+002,4.899015e+002
9.046630e+002,4.914164e+002
9.065915e+002,5.075700e+002
9.085200e+002,5.193007e+002
9.104484e+002,5.235565e+002
9.123769e+002,5.250390e+002
9.143054e+002,5.262723e+002
9.162338e+002,5.273130e+002
9.181623e+002,5.248320e+002
9.200908e+002,5.125526e+002
9.220192e+002,5.038368e+002
9.239477e+002,5.052558e+002
9.258762e+002,5.137976e+002
9.278046e+002,5.184854e+002
9.297331e+002,5.157996e+002
9.316616e+002,5.143185e+002
9.335900e+002,5.177842e+002
9.355185e+002,5.246636e+002
9.374470e+002,5.311269e+002
9.393754e+002,5.401019e+002
9.413039e+002,5.446633e+002
9.432324e+002,5.397592e+002
9.451608e+002,5.308718e+002
9.470893e+002,5.298162e+002
9.490178e+002,5.401122e+002
9.509462e+002,5.478592e+002
9.528747e+002,5.474053e+002
9.548032e+002,5.438809e+002
9.567316e+002,5.435459e+002
9.586601e+002,5.482782e+002
9.605886e+002,5.497109e+002
9.625170e+002,5.424398e+002
9.644455e+002,5.339461e+002
9.663740e+002,5.300868e+002
9.683024e+002,5.303691e+002
9.702309e+002,5.378542e+002
9.721594e+002,5.622421e+002
9.740878e+002,5.862772e+002
9.760163e+002,5.955250e+002
9.779448e+002,5.913925e+002
9.798733e+002,5.901191e+002
9.818018e+002,5.936842e+002
9.837302e+002,6.011537e+002
9.856587e+002,6.064885e+002
9.875872e+002,6.091063e+002
9.895156e+002,6.384897e+002
9.914441e+002,6.893759e+002
9.933726e+002,7.709635e+002
9.953010e+002,9.295142e+002
9.972295e+002,1.126651e+003
9.991580e+002,1.224524e+003
1.001086e+003,1.203285e+003
1.003015e+003,1.130691e+003
1.004943e+003,9.864058e+002
1.006872e+003,8.166809e+002
1.008800e+003,6.952067e+002
1.010729e+003,6.357755e+002
1.012657e+003,5.940881e+002
1.014586e+003,5.644128e+002
1.016514e+003,5.451446e+002
1.018443e+003,5.358933e+002
1.020371e+003,5.413879e+002
1.022300e+003,5.459286e+002
1.024228e+003,5.513820e+002
1.026156e+003,5.542767e+002
1.028085e+003,5.503469e+002
1.030013e+003,5.405092e+002
1.031942e+003,5.333649e+002
1.033870e+003,5.290071e+002
1.035799e+003,5.291330e+002
1.037727e+003,5.366260e+002
1.039656e+003,5.505316e+002
1.041584e+003,5.593519e+002
1.043513e+003,5.582009e+002
1.045441e+003,5.574016e+002
1.047370e+003,5.559379e+002
1.049298e+003,5.567803e+002
1.051227e+003,5.685526e+002
1.053155e+003,5.968151e+002
1.055083e+003,6.195949e+002
1.057012e+003,6.285231e+002
1.058940e+003,6.311342e+002
1.060869e+003,6.349899e+002
1.062797e+003,6.406472e+002
1.064726e+003,6.433156e+002
1.066654e+003,6.428563e+002
1.068583e+003,6.379341e+002
1.070511e+003,6.253408e+002
1.072440e+003,6.038182e+002
1.074368e+003,5.884625e+002
1.076297e+003,5.806984e+002
1.078225e+003,5.770740e+002
1.080154e+003,5.781374e+002
1.082082e+003,5.830021e+002
1.084010e+003,5.877164e+002
1.085939e+003,5.907901e+002
1.087867e+003,5.982640e+002
1.089796e+003,6.158016e+002
1.091724e+003,6.369326e+002
1.093653e+003,6.543881e+002
1.095581e+003,6.674237e+002
1.097510e+003,6.775854e+002
1.099438e+003,6.793757e+002
1.101367e+003,6.829622e+002
1.103295e+003,6.966122e+002
1.105224e+003,7.216537e+002
1.107152e+003,7.429276e+002
1.109081e+003,7.720905e+002
1.111009e+003,7.860117e+002
1.112938e+003,7.684767e+002
1.114866e+003,7.302051e+002
1.116794e+003,6.945956e+002
1.118723e+003,6.599915e+002
1.120651e+003,6.334362e+002
1.122580e+003,6.204949e+002
1.124508e+003,6.146116e+002
1.126437e+003,6.098773e+002
1.128365e+003,6.059109e+002
1.130294e+003,6.047964e+002
1.132222e+003,6.067991e+002
1.134151e+003,6.117138e+002
1.136079e+003,6.201307e+002
1.138008e+003,6.320475e+002
1.139936e+003,6.449809e+002
1.141865e+003,6.617132e+002
1.143793e+003,6.747572e+002
1.145721e+003,6.774727e+002
1.147650e+003,6.759674e+002
1.149578e+003,6.822556e+002
1.151507e+003,7.006198e+002
1.153435e+003,7.071204e+002
1.155364e+003,6.847585e+002
1.157292e+003,6.580765e+002
1.159221e+003,6.434906e+002
1.161149e+003,6.434422e+002
1.163078e+003,6.394374e+002
1.165006e+003,6.261268e+002
1.166935e+003,6.156569e+002
1.168863e+003,6.138214e+002
1.170792e+003,6.175197e+002
1.172720e+003,6.175992e+002
1.174648e+003,6.112361e+002
1.176577e+003,6.085226e+002
1.178505e+003,6.155842e+002
1.180434e+003,6.239238e+002
1.182362e+003,6.245323e+002
1.184291e+003,6.177740e+002
1.186219e+003,6.166317e+002
1.188148e+003,6.239529e+002
1.190076e+003,6.359695e+002
1.192005e+003,6.538246e+002
1.193933e+003,6.751958e+002
1.195862e+003,6.923533e+002
1.197790e+003,7.080542e+002
1.199719e+003,7.146465e+002
1.201647e+003,7.065748e+002
1.203575e+003,6.924869e+002
1.205504e+003,6.783499e+002
1.207432e+003,6.634658e+002
1.209361e+003,6.548345e+002
1.211289e+003,6.454806e+002
1.213218e+003,6.507450e+002
1.215146e+003,6.823258e+002
1.217075e+003,7.324119e+002
1.219003e+003,7.917712e+002
1.220932e+003,8.709464e+002
1.222860e+003,9.202076e+002
1.224789e+003,9.128286e+002
1.226717e+003,8.800319e+002
1.228646e+003,8.352968e+002
1.230574e+003,7.751208e+002
1.232502e+003,7.359701e+002
1.234431e+003,7.324619e+002
1.236359e+003,7.339631e+002
1.238288e+003,7.361255e+002
1.240216e+003,7.373014e+002
1.242145e+003,7.340139e+002
1.244073e+003,7.256688e+002
1.246002e+003,7.153619e+002
1.247930e+003,7.019237e+002
1.249859e+003,6.883011e+002
1.251787e+003,6.750666e+002
1.253716e+003,6.630303e+002
1.255644e+003,6.560288e+002
1.257573e+003,6.549662e+002
1.259501e+003,6.571938e+002
1.261429e+003,6.608266e+002
1.263358e+003,6.677220e+002
1.265286e+003,6.840798e+002
1.267215e+003,7.137135e+002
1.269143e+003,7.266211e+002
1.271072e+003,7.028649e+002
1.273000e+003,6.785475e+002
1.274929e+003,6.670335e+002
1.276857e+003,6.655452e+002
1.278786e+003,6.645883e+002
1.280714e+003,6.647927e+002
1.282643e+003,6.650991e+002
1.284571e+003,6.643144e+002
1.286500e+003,6.649364e+002
1.288428e+003,6.698560e+002
1.290356e+003,6.787352e+002
1.292285e+003,6.849882e+002
1.294213e+003,6.818901e+002
1.296142e+003,6.881151e+002
1.298070e+003,7.150533e+002
1.299999e+003,7.522145e+002
1.301927e+003,7.920753e+002
1.303856e+003,8.355282e+002
1.305784e+003,8.609028e+002
1.307713e+003,8.520043e+002
1.309641e+003,8.415894e+002
1.311570e+003,8.400074e+002
1.313498e+003,8.478301e+002
1.315427e+003,8.668588e+002
1.317355e+003,9.005292e+002
1.319283e+003,9.387903e+002
1.321212e+003,9.761807e+002
1.323140e+003,1.021779e+003
1.325069e+003,1.092037e+003
1.326997e+003,1.182155e+003
1.328926e+003,1.239591e+003
1.330854e+003,1.270029e+003
1.332783e+003,1.263077e+003
1.334711e+003,1.178027e+003
1.336640e+003,1.081901e+003
1.338568e+003,1.029074e+003
1.340497e+003,1.019087e+003
1.342425e+003,1.070920e+003
1.344354e+003,1.228461e+003
1.346282e+003,1.368614e+003
1.348210e+003,1.471292e+003
1.350139e+003,1.512536e+003
1.352068e+003,1.448409e+003
1.353996e+003,1.271912e+003
1.355924e+003,1.099711e+003
1.357853e+003,9.249673e+002
1.359781e+003,7.905880e+002
1.361710e+003,7.240538e+002
1.363638e+003,7.043171e+002
1.365567e+003,6.912877e+002
1.367495e+003,6.865116e+002
1.369424e+003,6.846727e+002
1.371352e+003,6.892541e+002
1.373281e+003,6.928303e+002
1.375209e+003,6.894185e+002
1.377138e+003,6.824063e+002
1.379066e+003,6.831992e+002
1.380995e+003,6.985972e+002
1.382923e+003,7.079320e+002
1.384851e+003,7.066873e+002
1.386780e+003,7.015069e+002
1.388708e+003,6.926740e+002
1.390637e+003,6.826581e+002
1.392565e+003,6.821200e+002
1.394494e+003,6.942614e+002
1.396422e+003,7.060943e+002
1.398351e+003,7.131377e+002
1.400279e+003,7.203834e+002
1.402208e+003,7.274308e+002
1.404136e+003,7.369510e+002
1.406065e+003,7.602838e+002
1.407993e+003,7.999989e+002
1.409922e+003,8.474021e+002
1.411850e+003,9.224259e+002
1.413778e+003,9.836868e+002
1.415707e+003,1.000494e+003
1.417635e+003,9.760325e+002
1.419564e+003,9.399293e+002
1.421492e+003,8.829832e+002
1.423421e+003,8.341829e+002
1.425349e+003,7.968828e+002
1.427278e+003,7.702922e+002
1.429206e+003,7.547052e+002
1.431135e+003,7.498037e+002
1.433063e+003,7.508735e+002
1.434992e+003,7.582102e+002
1.436920e+003,7.707500e+002
1.438849e+003,7.918550e+002
1.440777e+003,8.154658e+002
1.442705e+003,8.396428e+002
1.444634e+003,8.640338e+002
1.446562e+003,8.783149e+002
1.448491e+003,8.847998e+002
1.450419e+003,8.789325e+002
1.452348e+003,8.516221e+002
1.454276e+003,8.183159e+002
1.456205e+003,7.888323e+002
1.458133e+003,7.636057e+002
1.460062e+003,7.460333e+002
1.461990e+003,7.364248e+002
1.463919e+003,7.336024e+002
1.465847e+003,7.359669e+002
1.467776e+003,7.464182e+002
1.469704e+003,7.684535e+002
1.471632e+003,8.004150e+002
1.473561e+003,8.421090e+002
1.475489e+003,9.031999e+002
1.477418e+003,9.390573e+002
1.479346e+003,9.272996e+002
1.481275e+003,8.961449e+002
1.483203e+003,8.552090e+002
1.485132e+003,8.091979e+002
1.487060e+003,7.771129e+002
1.488989e+003,7.615858e+002
1.490917e+003,7.525461e+002
1.492846e+003,7.510764e+002
1.494774e+003,7.531010e+002
1.496703e+003,7.601868e+002
1.498631e+003,7.693730e+002
1.500559e+003,7.706810e+002
1.502488e+003,7.602244e+002
1.504416e+003,7.531500e+002
1.506345e+003,7.509044e+002
1.508273e+003,7.513542e+002
1.510202e+003,7.555885e+002
1.512130e+003,7.611968e+002
1.514059e+003,7.628827e+002
1.515987e+003,7.571724e+002
1.517916e+003,7.592832e+002
1.519844e+003,7.781675e+002
1.521773e+003,7.935594e+002
1.523701e+003,7.974165e+002
1.525630e+003,7.954686e+002
1.527558e+003,7.934051e+002
1.529486e+003,7.903445e+002
1.531415e+003,7.933251e+002
1.533343e+003,8.026126e+002
1.535272e+003,8.165161e+002
1.537200e+003,8.266375e+002
1.539129e+003,8.474659e+002
1.541057e+003,8.965712e+002
1.542986e+003,9.714102e+002
1.544914e+003,1.048909e+003
1.546843e+003,1.145700e+003
1.548771e+003,1.204721e+003
1.550700e+003,1.199235e+003
1.552628e+003,1.167827e+003
1.554557e+003,1.116510e+003
1.556485e+003,1.059426e+003
1.558413e+003,1.028416e+003
1.560342e+003,1.021089e+003
1.562270e+003,1.058788e+003
1.564199e+003,1.185780e+003
1.566127e+003,1.299949e+003
1.568056e+003,1.369436e+003
1.569984e+003,1.386852e+003
1.571913e+003,1.328819e+003
1.573841e+003,1.199534e+003
1.575770e+003,1.093997e+003
1.577698e+003,1.027528e+003
1.579627e+003,9.740760e+002
1.581555e+003,9.234465e+002
1.583484e+003,8.834104e+002
1.585412e+003,8.623149e+002
1.587340e+003,8.568204e+002
1.589269e+003,8.539752e+002
1.591197e+003,8.542697e+002
1.593126e+003,8.523985e+002
1.595054e+003,8.407482e+002
1.596983e+003,8.347287e+002
1.598911e+003,8.416862e+002
1.600840e+003,8.595517e+002
1.602768e+003,8.888198e+002
1.604697e+003,9.310118e+002
1.606625e+003,9.607051e+002
1.608554e+003,9.771582e+002
1.610482e+003,9.768449e+002
1.612411e+003,9.508690e+002
1.614339e+003,9.150330e+002
1.616267e+003,8.793176e+002
1.618196e+003,8.448730e+002
1.620124e+003,8.203574e+002
1.622053e+003,8.067222e+002
1.623981e+003,8.010201e+002
1.625910e+003,8.104245e+002
1.627838e+003,8.185712e+002
1.629767e+003,8.158603e+002
1.631695e+003,8.068382e+002
1.633624e+003,7.999297e+002
1.635552e+003,7.950029e+002
1.637481e+003,7.922781e+002
1.639409e+003,7.925907e+002
1.641338e+003,7.942477e+002
1.643266e+003,7.986414e+002
1.645194e+003,8.031030e+002
1.647123e+003,8.053945e+002
1.649051e+003,8.057898e+002
1.650980e+003,8.058571e+002
1.652908e+003,8.053473e+002
1.654837e+003,8.039861e+002
1.656765e+003,7.984695e+002
1.658694e+003,7.954835e+002
1.660622e+003,7.992229e+002
1.662551e+003,8.057669e+002
1.664479e+003,8.114087e+002
1.666408e+003,8.167476e+002
1.668336e+003,8.172442e+002
1.670265e+003,8.096863e+002
1.672193e+003,8.049026e+002
1.674121e+003,8.067174e+002
1.676050e+003,8.090192e+002
1.677978e+003,8.058958e+002
1.679907e+003,8.012050e+002
1.681835e+003,8.048802e+002
1.683764e+003,8.199635e+002
1.685692e+003,8.255016e+002
1.687621e+003,8.122347e+002
1.689549e+003,8.027841e+002
1.691478e+003,8.034484e+002
1.693406e+003,8.082682e+002
1.695335e+003,8.158432e+002
1.697263e+003,8.246320e+002
1.699192e+003,8.281590e+002
1.701120e+003,8.249521e+002
1.703048e+003,8.221390e+002
1.704977e+003,8.185425e+002
1.706905e+003,8.165455e+002
1.708834e+003,8.183068e+002
1.710762e+003,8.197565e+002
1.712691e+003,8.166429e+002
1.714619e+003,8.100953e+002
1.716548e+003,8.058587e+002
1.718476e+003,8.043632e+002
1.720405e+003,8.055366e+002
1.722333e+003,8.132831e+002
1.724262e+003,8.190468e+002
1.726190e+003,8.177487e+002
1.728119e+003,8.150856e+002
1.730047e+003,8.172260e+002
1.731975e+003,8.230553e+002
1.733904e+003,8.249547e+002
1.735832e+003,8.211659e+002
1.737761e+003,8.194837e+002
1.739689e+003,8.232784e+002
1.741618e+003,8.262694e+002
1.743546e+003,8.272479e+002
1.745475e+003,8.257793e+002
1.747403e+003,8.184791e+002
1.749332e+003,8.069344e+002
1.751260e+003,8.055690e+002
1.753189e+003,8.173896e+002
1.755117e+003,8.265718e+002
1.757046e+003,8.317092e+002
1.758974e+003,8.334853e+002
1.760902e+003,8.311941e+002
1.762831e+003,8.273407e+002
1.764759e+003,8.219719e+002
1.766688e+003,8.166157e+002
1.768616e+003,8.194611e+002
1.770545e+003,8.323107e+002
1.772473e+003,8.400999e+002
1.774402e+003,8.363305e+002
1.776330e+003,8.336577e+002
1.778259e+003,8.401717e+002
1.780187e+003,8.466077e+002
1.782116e+003,8.427013e+002
1.784044e+003,8.336575e+002
1.785973e+003,8.365300e+002
1.787901e+003,8.531104e+002
1.789829e+003,8.588201e+002
1.791758e+003,8.448260e+002
1.793686e+003,8.336411e+002
1.795615e+003,8.341401e+002
1.797543e+003,8.389868e+002
1.799472e+003,8.442104e+002
1.801400e+003,8.495962e+002
1.803329e+003,8.579438e+002
1.805257e+003,8.686694e+002
1.807186e+003,8.613745e+002
1.809114e+003,8.227742e+002
1.811043e+003,7.997004e+002
1.812971e+003,8.168271e+002
1.814900e+003,8.388990e+002
1.816828e+003,8.456590e+002
1.818756e+003,8.462545e+002
1.820685e+003,8.564348e+002
1.822613e+003,8.737699e+002
1.824542e+003,8.762470e+002
1.826470e+003,8.563168e+002
1.828399e+003,8.460798e+002
1.830327e+003,8.625712e+002
1.832256e+003,8.735677e+002
1.834184e+003,8.610391e+002
1.836113e+003,8.435698e+002
1.838041e+003,8.390979e+002
1.839970e+003,8.448460e+002
1.841898e+003,8.508128e+002
1.843827e+003,8.580172e+002
1.845755e+003,8.626931e+002
1.847684e+003,8.642102e+002
1.849612e+003,8.637578e+002
1.851541e+003,8.547267e+002
1.853469e+003,8.502927e+002
1.855397e+003,8.653814e+002
1.857326e+003,8.863708e+002
1.859254e+003,8.883903e+002
1.861183e+003,8.710426e+002
1.863111e+003,8.620848e+002
1.865040e+003,8.669230e+002
1.866968e+003,8.690320e+002
1.868897e+003,8.643448e+002
1.870825e+003,8.614066e+002
1.872754e+003,8.635665e+002
1.874682e+003,8.680013e+002
1.876611e+003,8.729023e+002
1.878539e+003,8.781248e+002
1.880468e+003,8.834081e+002
1.882396e+003,8.888096e+002
1.884324e+003,8.929355e+002
1.886253e+003,8.971917e+002
1.888181e+003,8.949946e+002
1.890110e+003,8.769405e+002
1.892038e+003,8.629446e+002
1.893967e+003,8.663669e+002
1.895895e+003,8.760700e+002
1.897824e+003,8.823705e+002
1.899752e+003,8.854713e+002
1.901681e+003,8.856379e+002
1.903609e+003,8.829688e+002
1.905538e+003,8.789418e+002
1.907466e+003,8.717385e+002
1.909395e+003,8.690626e+002
1.911323e+003,8.796631e+002
1.913251e+003,8.881028e+002
1.915180e+003,8.816805e+002
1.917108e+003,8.708776e+002
1.919037e+003,8.696589e+002
1.920965e+003,8.763615e+002
1.922894e+003,8.817269e+002
1.924822e+003,8.854719e+002
1.926751e+003,8.891984e+002
1.928679e+003,8.964439e+002
1.930608e+003,8.989045e+002
1.932536e+003,8.882565e+002
1.934465e+003,8.804608e+002
1.936393e+003,8.876945e+002
1.938322e+003,9.005626e+002
1.940250e+003,9.078301e+002
1.942178e+003,9.093027e+002
1.944107e+003,9.031949e+002
1.946035e+003,8.849615e+002
1.947964e+003,8.791518e+002
1.949892e+003,8.948783e+002
1.951821e+003,9.080470e+002
1.953749e+003,9.132520e+002
1.955678e+003,9.151160e+002
1.957606e+003,9.146421e+002
1.959535e+003,9.128594e+002
1.961463e+003,9.084576e+002
1.963392e+003,9.035994e+002
1.965320e+003,9.094432e+002
1.967249e+003,9.264347e+002
1.969177e+003,9.256878e+002
1.971105e+003,8.946779e+002
1.973034e+003,8.782817e+002
1.974962e+003,9.005759e+002
1.976891e+003,9.224552e+002
1.978819e+003,9.265372e+002
1.980748e+003,9.221647e+002
1.982676e+003,9.131741e+002
1.984605e+003,9.032787e+002
1.986533e+003,9.030021e+002
1.988462e+003,9.128822e+002
1.990390e+003,9.197186e+002
1.992319e+003,9.204501e+002
1.994247e+003,9.237690e+002
1.996176e+003,9.344180e+002
1.998104e+003,9.416968e+002
2.000032e+003,9.401152e+002
2.001961e+003,9.375609e+002
2.003889e+003,9.394538e+002
2.005818e+003,9.427862e+002
2.007746e+003,9.419573e+002
2.009675e+003,9.379756e+002
2.011603e+003,9.395928e+002
2.013532e+003,9.475286e+002
2.015460e+003,9.523499e+002
2.017389e+003,9.527072e+002
2.019317e+003,9.525444e+002
2.021246e+003,9.531630e+002
2.023174e+003,9.536034e+002
2.025103e+003,9.491633e+002
2.027031e+003,9.482626e+002
2.028959e+003,9.679457e+002
2.030888e+003,9.915960e+002
2.032816e+003,9.799742e+002
2.034745e+003,9.362680e+002
2.036673e+003,9.176991e+002
2.038602e+003,9.334374e+002
2.040530e+003,9.476156e+002
2.042459e+003,9.647401e+002
2.044387e+003,9.725206e+002
2.046316e+003,9.632320e+002
2.048244e+003,9.515258e+002
2.050173e+003,9.381794e+002
2.052101e+003,9.306015e+002
2.054030e+003,9.393647e+002
2.055958e+003,9.579407e+002
2.057886e+003,9.725232e+002
2.059815e+003,9.830546e+002
2.061743e+003,9.883922e+002
2.063672e+003,9.879169e+002
2.065600e+003,9.870669e+002
2.067529e+003,9.875961e+002
2.069457e+003,9.846234e+002
2.071386e+003,9.718423e+002
2.073314e+003,9.621185e+002
2.075243e+003,9.625865e+002
2.077171e+003,9.684213e+002
2.079100e+003,9.837820e+002
2.081028e+003,9.976912e+002
2.082957e+003,9.783143e+002
2.084885e+003,9.304052e+002
2.086813e+003,9.219474e+002
2.088742e+003,9.726036e+002
2.090670e+003,1.002206e+003
2.092599e+003,1.003237e+003
2.094527e+003,9.970939e+002
2.096456e+003,9.762371e+002
2.098384e+003,9.647671e+002
2.100313e+003,9.801279e+002
2.102241e+003,9.984458e+002
2.104170e+003,1.004492e+003
2.106098e+003,1.004382e+003
2.108027e+003,1.006552e+003
2.109955e+003,1.008846e+003
2.111884e+003,1.004388e+003
2.113812e+003,9.930068e+002
2.115740e+003,9.787966e+002
2.117669e+003,9.580126e+002
2.119597e+003,9.474359e+002
2.121526e+003,9.511708e+002
2.123454e+003,9.621623e+002
2.125383e+003,9.928027e+002
2.127311e+003,1.012423e+003
2.129240e+003,9.922774e+002
2.131168e+003,9.674707e+002
2.133097e+003,9.722548e+002
2.135025e+003,9.923912e+002
2.136954e+003,1.002692e+003
2.138882e+003,1.005402e+003
2.140811e+003,1.014203e+003
2.142739e+003,1.029558e+003
2.144667e+003,1.027241e+003
2.146596e+003,9.988574e+002
2.148524e+003,9.837399e+002
2.150453e+003,9.941794e+002
2.152381e+003,1.008928e+003
2.154310e+003,1.034301e+003
2.156238e+003,1.045605e+003
2.158167e+003,1.009846e+003
2.160095e+003,9.750721e+002
2.162024e+003,1.001269e+003
2.163952e+003,1.048814e+003
2.165881e+003,1.037454e+003
2.167809e+003,9.823663e+002
2.169738e+003,9.777467e+002
2.171666e+003,1.024518e+003
2.173594e+003,1.048971e+003
2.175523e+003,1.043522e+003
2.177451e+003,1.035645e+003
2.179380e+003,1.026356e+003
2.181308e+003,1.024921e+003
2.183237e+003,1.042943e+003
2.185165e+003,1.057417e+003
2.187094e+003,1.058537e+003
2.189022e+003,1.053469e+003
2.190951e+003,1.044457e+003
2.192879e+003,1.034224e+003
2.194808e+003,1.020332e+003
2.196736e+003,1.008966e+003
2.198665e+003,1.023748e+003
2.200593e+003,1.063078e+003
2.202521e+003,1.078017e+003
2.204450e+003,1.066006e+003
2.206378e+003,1.059998e+003
2.208307e+003,1.064503e+003
2.210235e+003,1.068520e+003
2.212164e+003,1.074434e+003
2.214092e+003,1.070077e+003
2.216021e+003,1.034140e+003
2.217949e+003,1.010455e+003
2.219878e+003,1.028367e+003
2.221806e+003,1.056019e+003
2.223735e+003,1.072030e+003
2.225663e+003,1.079873e+003
2.227592e+003,1.082740e+003
2.229520e+003,1.081387e+003
2.231448e+003,1.077806e+003
2.233377e+003,1.072367e+003
2.235305e+003,1.068869e+003
2.237234e+003,1.067961e+003
2.239162e+003,1.058452e+003
2.241091e+003,1.036269e+003
2.243019e+003,1.026093e+003
2.244948e+003,1.039982e+003
2.246876e+003,1.047817e+003
2.248805e+003,1.028821e+003
2.250733e+003,1.019086e+003
2.252662e+003,1.042816e+003
2.254590e+003,1.066554e+003
2.256519e+003,1.070986e+003
2.258447e+003,1.064256e+003
2.260375e+003,1.044499e+003
2.262304e+003,1.025782e+003
2.264232e+003,1.041717e+003
2.266161e+003,1.076615e+003
2.268089e+003,1.074326e+003
2.270018e+003,1.040700e+003
2.271946e+003,1.040263e+003
2.273875e+003,1.082248e+003
2.275803e+003,1.093863e+003
2.277732e+003,1.051056e+003
2.279660e+003,1.022301e+003
2.281589e+003,1.018752e+003
2.283517e+003,1.021011e+003
2.285446e+003,1.032485e+003
2.287374e+003,1.040261e+003
2.289302e+003,1.033925e+003
2.291231e+003,1.030176e+003
2.293159e+003,1.040429e+003
2.295088e+003,1.053999e+003
2.297016e+003,1.058776e+003
2.298945e+003,1.063565e+003
2.300873e+003,1.085874e+003
2.302802e+003,1.115770e+003
2.304730e+003,1.130391e+003
2.306659e+003,1.129894e+003
2.308587e+003,1.111810e+003
2.310516e+003,1.071600e+003
2.312444e+003,1.052817e+003
2.314373e+003,1.057974e+003
2.316301e+003,1.072922e+003
2.318229e+003,1.103272e+003
2.320158e+003,1.114210e+003
2.322086e+003,1.089365e+003
2.324015e+003,1.070657e+003
2.325943e+003,1.075526e+003
2.327872e+003,1.082888e+003
2.329800e+003,1.086233e+003
2.331729e+003,1.087669e+003
2.333657e+003,1.087655e+003
2.335586e+003,1.086335e+003
2.337514e+003,1.079325e+003
2.339443e+003,1.074288e+003
2.341371e+003,1.082874e+003
2.343300e+003,1.099366e+003
2.345228e+003,1.117803e+003
2.347156e+003,1.134279e+003
2.349085e+003,1.134275e+003
2.351013e+003,1.119249e+003
2.352942e+003,1.107112e+003
2.354870e+003,1.098759e+003
2.356799e+003,1.088484e+003
2.358727e+003,1.065756e+003
2.360656e+003,1.074924e+003
2.362584e+003,1.136636e+003
2.364513e+003,1.169583e+003
2.366441e+003,1.149233e+003
2.368370e+003,1.131627e+003
2.370298e+003,1.137248e+003
2.372227e+003,1.139012e+003
2.374155e+003,1.119783e+003
2.376083e+003,1.102031e+003
2.378012e+003,1.094810e+003
2.379940e+003,1.096321e+003
2.381869e+003,1.111447e+003
2.383797e+003,1.128605e+003
2.385726e+003,1.138366e+003
2.387654e+003,1.141460e+003
2.389583e+003,1.132212e+003
2.391511e+003,1.120515e+003
2.393440e+003,1.132430e+003
2.395368e+003,1.158056e+003
2.397297e+003,1.159563e+003
2.399225e+003,1.138895e+003
2.401154e+003,1.123627e+003
2.403082e+003,1.112954e+003
2.405010e+003,1.115282e+003
2.406939e+003,1.135859e+003
2.408867e+003,1.140969e+003
2.410796e+003,1.124488e+003
2.412724e+003,1.116390e+003
2.414653e+003,1.122608e+003
2.416581e+003,1.132373e+003
2.418510e+003,1.148325e+003
2.420438e+003,1.156282e+003
2.422367e+003,1.140737e+003
2.424295e+003,1.132689e+003
2.426224e+003,1.149868e+003
2.428152e+003,1.166780e+003
2.430081e+003,1.176749e+003
2.432009e+003,1.177823e+003
2.433938e+003,1.161246e+003
2.435866e+003,1.145637e+003
2.437794e+003,1.148143e+003
2.439723e+003,1.157335e+003
2.441651e+003,1.159883e+003
2.443580e+003,1.160885e+003
2.445508e+003,1.172059e+003
2.447437e+003,1.185340e+003
2.449365e+003,1.179155e+003
2.451294e+003,1.160255e+003
2.453222e+003,1.155245e+003
2.455151e+003,1.161460e+003
2.457079e+003,1.166892e+003
2.459008e+003,1.171376e+003
2.460936e+003,1.171808e+003
2.462865e+003,1.167226e+003
2.464793e+003,1.168948e+003
2.466721e+003,1.178633e+003
2.468650e+003,1.189415e+003
2.470578e+003,1.203047e+003
2.472507e+003,1.205916e+003
2.474435e+003,1.190679e+003
2.476364e+003,1.191499e+003
2.478292e+003,1.226491e+003
2.480221e+003,1.243133e+003
2.482149e+003,1.209577e+003
2.484078e+003,1.187436e+003
2.486006e+003,1.203318e+003
2.487935e+003,1.213983e+003
2.489863e+003,1.201352e+003
2.491792e+003,1.187833e+003
2.493720e+003,1.177076e+003
2.495648e+003,1.173593e+003
2.497577e+003,1.187373e+003
2.499505e+003,1.199349e+003
2.501434e+003,1.192533e+003
2.503362e+003,1.184226e+003
2.505291e+003,1.195486e+003
2.507219e+003,1.206240e+003
2.509148e+003,1.185536e+003
2.511076e+003,1.161709e+003
2.513005e+003,1.170870e+003
2.514933e+003,1.198334e+003
2.516862e+003,1.237816e+003
2.518790e+003,1.270577e+003
2.520719e+003,1.250359e+003
2.522647e+003,1.199825e+003
2.524575e+003,1.177278e+003
2.526504e+003,1.178342e+003
2.528432e+003,1.189161e+003
2.530361e+003,1.207073e+003
2.532289e+003,1.216629e+003
2.534218e+003,1.218604e+003
2.536146e+003,1.221144e+003
2.538075e+003,1.224201e+003
2.540003e+003,1.217066e+003
2.541932e+003,1.197370e+003
2.543860e+003,1.190972e+003
2.545789e+003,1.201508e+003
2.547717e+003,1.201378e+003
2.549646e+003,1.187943e+003
2.551574e+003,1.188913e+003
2.553502e+003,1.210788e+003
2.555431e+003,1.218329e+003
2.557359e+003,1.200018e+003
2.559288e+003,1.185683e+003
2.561216e+003,1.171590e+003
2.563145e+003,1.175742e+003
2.565073e+003,1.210050e+003
2.567002e+003,1.231544e+003
2.568930e+003,1.230479e+003
2.570859e+003,1.224658e+003
2.572787e+003,1.213879e+003
2.574716e+003,1.209847e+003
2.576644e+003,1.221347e+003
2.578573e+003,1.230542e+003
2.580501e+003,1.225562e+003
2.582429e+003,1.229456e+003
2.584358e+003,1.262357e+003
2.586287e+003,1.277238e+003
2.588215e+003,1.242608e+003
2.590144e+003,1.210555e+003
2.592072e+003,1.206074e+003
2.594000e+003,1.209635e+003
2.595929e+003,1.215314e+003
2.597857e+003,1.221747e+003
2.599786e+003,1.230116e+003
2.601714e+003,1.235704e+003
2.603643e+003,1.232536e+003
2.605571e+003,1.229833e+003
2.607500e+003,1.233818e+003
2.609428e+003,1.240442e+003
2.611357e+003,1.251829e+003
2.613285e+003,1.258898e+003
2.615214e+003,1.253893e+003
2.617142e+003,1.241719e+003
2.619071e+003,1.216269e+003
2.620999e+003,1.196880e+003
2.622927e+003,1.208305e+003
2.624856e+003,1.225505e+003
2.626784e+003,1.220371e+003
2.628713e+003,1.210143e+003
2.630641e+003,1.214397e+003
2.632570e+003,1.224934e+003
2.634498e+003,1.229763e+003
2.636427e+003,1.236961e+003
2.638355e+003,1.268776e+003
2.640284e+003,1.297497e+003
2.642212e+003,1.274069e+003
2.644141e+003,1.234234e+003
2.646069e+003,1.236149e+003
2.647998e+003,1.254082e+003
2.649926e+003,1.245266e+003
2.651854e+003,1.224038e+003
2.653783e+003,1.211142e+003
2.655711e+003,1.205111e+003
2.657640e+003,1.202715e+003
2.659568e+003,1.206410e+003
2.661497e+003,1.226514e+003
2.663425e+003,1.252386e+003
2.665354e+003,1.260018e+003
2.667282e+003,1.257875e+003
2.669211e+003,1.266551e+003
2.671139e+003,1.276695e+003
2.673068e+003,1.264987e+003
2.674996e+003,1.244075e+003
2.676925e+003,1.244905e+003
2.678853e+003,1.257141e+003
2.680781e+003,1.255141e+003
2.682710e+003,1.245443e+003
2.684638e+003,1.243773e+003
2.686567e+003,1.246813e+003
2.688495e+003,1.245529e+003
2.690424e+003,1.244016e+003
2.692352e+003,1.257014e+003
2.694281e+003,1.275208e+003
2.696209e+003,1.268028e+003
2.698138e+003,1.249260e+003
2.700066e+003,1.258134e+003
2.701995e+003,1.280662e+003
2.703923e+003,1.285441e+003
2.705852e+003,1.278894e+003
2.707780e+003,1.273538e+003
2.709708e+003,1.271322e+003
2.711637e+003,1.284246e+003
2.713565e+003,1.301309e+003
2.715494e+003,1.288311e+003
2.717422e+003,1.265425e+003
2.719351e+003,1.282840e+003
2.721279e+003,1.315641e+003
2.723208e+003,1.304841e+003
2.725136e+003,1.271307e+003
2.727065e+003,1.254481e+003
2.728993e+003,1.251143e+003
2.730922e+003,1.261641e+003
2.732850e+003,1.275683e+003
2.734779e+003,1.271406e+003
2.736707e+003,1.260443e+003
2.738635e+003,1.269834e+003
2.740564e+003,1.284487e+003
2.742492e+003,1.271530e+003
2.744421e+003,1.251209e+003
2.746349e+003,1.253753e+003
2.748278e+003,1.269510e+003
2.750206e+003,1.292895e+003
2.752135e+003,1.312661e+003
2.754063e+003,1.309337e+003
2.755992e+003,1.294794e+003
2.757920e+003,1.283012e+003
2.759849e+003,1.271715e+003
2.761777e+003,1.257770e+003
2.763706e+003,1.244492e+003
2.765634e+003,1.232226e+003
2.767563e+003,1.226661e+003
2.769491e+003,1.239244e+003
2.771419e+003,1.255433e+003
2.773348e+003,1.262239e+003
2.775276e+003,1.264724e+003
2.777205e+003,1.263269e+003
2.779133e+003,1.263589e+003
2.781062e+003,1.272323e+003
2.782990e+003,1.282328e+003
2.784919e+003,1.290115e+003
2.786847e+003,1.294049e+003
2.788776e+003,1.288970e+003
2.790704e+003,1.285648e+003
2.792633e+003,1.296344e+003
2.794561e+003,1.304153e+003
2.796490e+003,1.296173e+003
2.798418e+003,1.289360e+003
2.800346e+003,1.292771e+003
2.802275e+003,1.296692e+003
2.804203e+003,1.296618e+003
2.806132e+003,1.294745e+003
2.808060e+003,1.285231e+003
2.809989e+003,1.283745e+003
2.811917e+003,1.302084e+003
2.813846e+003,1.310362e+003
2.815774e+003,1.291341e+003
2.817703e+003,1.281401e+003
2.819631e+003,1.301523e+003
2.821560e+003,1.315004e+003
2.823488e+003,1.307789e+003
2.825417e+003,1.315032e+003
2.827345e+003,1.344019e+003
2.829273e+003,1.380642e+003
2.831202e+003,1.431678e+003
2.833130e+003,1.457744e+003
2.835059e+003,1.428206e+003
2.836987e+003,1.442057e+003
2.838916e+003,1.507813e+003
2.840844e+003,1.575556e+003
2.842773e+003,1.643006e+003
2.844701e+003,1.671509e+003
2.846630e+003,1.651370e+003
2.848558e+003,1.640176e+003
2.850487e+003,1.639223e+003
2.852415e+003,1.625433e+003
2.854344e+003,1.600332e+003
2.856272e+003,1.582654e+003
2.858200e+003,1.570136e+003
2.860129e+003,1.536401e+003
2.862057e+003,1.486926e+003
2.863986e+003,1.452229e+003
2.865914e+003,1.430830e+003
2.867843e+003,1.420924e+003
2.869771e+003,1.419383e+003
2.871700e+003,1.425713e+003
2.873628e+003,1.430530e+003
2.875557e+003,1.409750e+003
2.877485e+003,1.380350e+003
2.879414e+003,1.360761e+003
2.881342e+003,1.356610e+003
2.883271e+003,1.383197e+003
2.885199e+003,1.418751e+003
2.887127e+003,1.434206e+003
2.889056e+003,1.457607e+003
2.890984e+003,1.508680e+003
2.892913e+003,1.579642e+003
2.894841e+003,1.684957e+003
2.896770e+003,1.779524e+003
2.898698e+003,1.856910e+003
2.900627e+003,1.885707e+003
2.902555e+003,1.833052e+003
2.904484e+003,1.777141e+003
2.906412e+003,1.745961e+003
2.908341e+003,1.706127e+003
2.910269e+003,1.630548e+003
2.912198e+003,1.578998e+003
2.914126e+003,1.554853e+003
2.916054e+003,1.564583e+003
2.917983e+003,1.610383e+003
2.919911e+003,1.685490e+003
2.921840e+003,1.809983e+003
2.923768e+003,1.870428e+003
2.925697e+003,1.861122e+003
2.927625e+003,1.831850e+003
2.929554e+003,1.786861e+003
2.931482e+003,1.763791e+003
2.933411e+003,1.759875e+003
2.935339e+003,1.739629e+003
2.937268e+003,1.712041e+003
2.939196e+003,1.722515e+003
2.941125e+003,1.755114e+003
2.943053e+003,1.782636e+003
2.944981e+003,1.797353e+003
2.946910e+003,1.787303e+003
2.948838e+003,1.756048e+003
2.950767e+003,1.688009e+003
2.952695e+003,1.625991e+003
2.954624e+003,1.619133e+003
2.956552e+003,1.615094e+003
2.958481e+003,1.561658e+003
2.960409e+003,1.519730e+003
2.962338e+003,1.532404e+003
2.964266e+003,1.547244e+003
2.966195e+003,1.541252e+003
2.968123e+003,1.547576e+003
2.970052e+003,1.599165e+003
2.971980e+003,1.622250e+003
2.973908e+003,1.604998e+003
2.975837e+003,1.567630e+003
2.977765e+003,1.507712e+003
2.979694e+003,1.463633e+003
2.981622e+003,1.442953e+003
2.983551e+003,1.420817e+003
2.985479e+003,1.396925e+003
2.987408e+003,1.378927e+003
2.989336e+003,1.367340e+003
2.991265e+003,1.368370e+003
2.993193e+003,1.375752e+003
2.995122e+003,1.366940e+003
2.997050e+003,1.350333e+003
2.998979e+003,1.340678e+003
3.000907e+003,1.337392e+003
3.002835e+003,1.339891e+003
3.004764e+003,1.347085e+003
3.006692e+003,1.359678e+003
3.008621e+003,1.373285e+003
3.010549e+003,1.384656e+003
3.012478e+003,1.396235e+003
3.014406e+003,1.393997e+003
3.016335e+003,1.418666e+003
3.018263e+003,1.515479e+003
3.020192e+003,1.582914e+003
3.022120e+003,1.608243e+003
3.024049e+003,1.591845e+003
3.025977e+003,1.512879e+003
3.027906e+003,1.475800e+003
3.029834e+003,1.485012e+003
3.031762e+003,1.538144e+003
3.033691e+003,1.630926e+003
3.035619e+003,1.717488e+003
3.037548e+003,1.809478e+003
3.039476e+003,1.957053e+003
3.041405e+003,2.160942e+003
3.043333e+003,2.467579e+003
3.045262e+003,2.787653e+003
3.047190e+003,3.085803e+003
3.049119e+003,3.224624e+003
3.051047e+003,2.989446e+003
3.052976e+003,2.631443e+003
3.054904e+003,2.241296e+003
3.056833e+003,1.914192e+003
3.058761e+003,1.693372e+003
3.060689e+003,1.551106e+003
3.062618e+003,1.505250e+003
3.064546e+003,1.479437e+003
3.066475e+003,1.466386e+003
3.068403e+003,1.468315e+003
3.070332e+003,1.489298e+003
3.072260e+003,1.506705e+003
3.074189e+003,1.519464e+003
3.076117e+003,1.507222e+003
3.078046e+003,1.478920e+003
3.079974e+003,1.480135e+003
3.081903e+003,1.491516e+003
3.083831e+003,1.463527e+003
3.085760e+003,1.423728e+003
3.087688e+003,1.417384e+003
3.089616e+003,1.408229e+003
3.091545e+003,1.345794e+003
3.093473e+003,1.301477e+003
3.095402e+003,1.338833e+003
3.097330e+003,1.363901e+003
3.099259e+003,1.342356e+003
3.101187e+003,1.325518e+003
3.103116e+003,1.324218e+003
3.105044e+003,1.335587e+003
3.106973e+003,1.360702e+003
3.108901e+003,1.392827e+003
3.110830e+003,1.428260e+003
3.112758e+003,1.405020e+003
3.114687e+003,1.341352e+003
3.116615e+003,1.326695e+003
3.118543e+003,1.342708e+003
3.120472e+003,1.367271e+003
3.122400e+003,1.379682e+003
3.124329e+003,1.341792e+003
3.126257e+003,1.299629e+003
3.128186e+003,1.285669e+003
3.130114e+003,1.282766e+003
3.132043e+003,1.295878e+003
3.133971e+003,1.296328e+003
3.135900e+003,1.264929e+003
3.137828e+003,1.251684e+003
3.139757e+003,1.261160e+003
3.141685e+003,1.290918e+003
3.143614e+003,1.342613e+003
3.145542e+003,1.335311e+003
3.147470e+003,1.281815e+003
3.149399e+003,1.270767e+003
3.151327e+003,1.281785e+003
3.153256e+003,1.273642e+003
3.155184e+003,1.260471e+003
3.157113e+003,1.260005e+003
3.159041e+003,1.262105e+003
3.160970e+003,1.252553e+003
3.162898e+003,1.254165e+003
3.164827e+003,1.301204e+003
3.166755e+003,1.308110e+003
3.168684e+003,1.245014e+003
3.170612e+003,1.230202e+003
3.172541e+003,1.293502e+003
3.174469e+003,1.303505e+003
3.176397e+003,1.258830e+003
3.178326e+003,1.237790e+003
3.180254e+003,1.235627e+003
3.182183e+003,1.244068e+003
3.184111e+003,1.253779e+003
3.186040e+003,1.248246e+003
3.187968e+003,1.239119e+003
3.189897e+003,1.235108e+003
3.191825e+003,1.233783e+003
3.193754e+003,1.234342e+003
3.195682e+003,1.237912e+003
3.197611e+003,1.246308e+003
3.199539e+003,1.251624e+003
3.201468e+003,1.252756e+003
3.203396e+003,1.247167e+003
3.205324e+003,1.234900e+003
3.207253e+003,1.238765e+003
3.209181e+003,1.251131e+003
3.211110e+003,1.246075e+003
3.213038e+003,1.236937e+003
3.214967e+003,1.247644e+003
3.216895e+003,1.260469e+003
3.218824e+003,1.262746e+003
3.220752e+003,1.260248e+003
3.222681e+003,1.247848e+003
3.224609e+003,1.247697e+003
3.226538e+003,1.267629e+003
3.228466e+003,1.275837e+003
3.230395e+003,1.266383e+003
3.232323e+003,1.267526e+003
3.234251e+003,1.277397e+003
3.236180e+003,1.268368e+003
3.238108e+003,1.251973e+003
3.240037e+003,1.251113e+003
3.241965e+003,1.258869e+003
3.243894e+003,1.279319e+003
3.245822e+003,1.286176e+003
3.247751e+003,1.253263e+003
3.249679e+003,1.229141e+003
3.251608e+003,1.236079e+003
3.253536e+003,1.243781e+003
3.255465e+003,1.249549e+003
3.257393e+003,1.261214e+003
3.259322e+003,1.277979e+003
3.261250e+003,1.279924e+003
3.263178e+003,1.270559e+003
3.265107e+003,1.246493e+003
3.267035e+003,1.234671e+003
3.268964e+003,1.293249e+003
3.270892e+003,1.340088e+003
3.272821e+003,1.306795e+003
3.274749e+003,1.271870e+003
3.276678e+003,1.252395e+003
3.278606e+003,1.261089e+003
3.280535e+003,1.311656e+003
3.282463e+003,1.312119e+003
3.284392e+003,1.269079e+003
3.286320e+003,1.262612e+003
3.288249e+003,1.277807e+003
3.290177e+003,1.270270e+003
3.292105e+003,1.260985e+003
3.294034e+003,1.278538e+003
3.295962e+003,1.295173e+003
3.297891e+003,1.292715e+003
3.299819e+003,1.286315e+003
3.301748e+003,1.277987e+003
3.303676e+003,1.272307e+003
3.305605e+003,1.269724e+003
3.307533e+003,1.271524e+003
3.309462e+003,1.277198e+003
3.311390e+003,1.287774e+003
3.313319e+003,1.296833e+003
3.315247e+003,1.287548e+003
3.317176e+003,1.278518e+003
3.319104e+003,1.288600e+003
3.321032e+003,1.299506e+003
3.322961e+003,1.306981e+003
3.324889e+003,1.303735e+003
3.326818e+003,1.284984e+003
3.328746e+003,1.288977e+003
3.330675e+003,1.315550e+003
3.332603e+003,1.316865e+003
3.334532e+003,1.302502e+003
3.336460e+003,1.298081e+003
3.338389e+003,1.301668e+003
3.340317e+003,1.322604e+003
3.342246e+003,1.332477e+003
3.344174e+003,1.306941e+003
3.346103e+003,1.290193e+003
3.348031e+003,1.294780e+003
3.349959e+003,1.297423e+003
3.351888e+003,1.295823e+003
3.353816e+003,1.299047e+003
3.355745e+003,1.306456e+003
3.357673e+003,1.320763e+003
3.359602e+003,1.331838e+003
3.361530e+003,1.314591e+003
3.363459e+003,1.305858e+003
3.365387e+003,1.335203e+003
3.367316e+003,1.360196e+003
3.369244e+003,1.364379e+003
3.371173e+003,1.388754e+003
3.373101e+003,1.434818e+003
3.375030e+003,1.461526e+003
3.376958e+003,1.475786e+003
3.378886e+003,1.495671e+003
3.380815e+003,1.533048e+003
3.382743e+003,1.597156e+003
3.384672e+003,1.687877e+003
3.386600e+003,1.795159e+003
3.388529e+003,1.952334e+003
3.390457e+003,2.162931e+003
3.392386e+003,2.467789e+003
3.394314e+003,2.868677e+003
3.396243e+003,3.137636e+003
3.398171e+003,3.268453e+003
3.400100e+003,3.257708e+003
3.402028e+003,3.137957e+003
3.403957e+003,2.902922e+003
3.405885e+003,2.636743e+003
3.407813e+003,2.351776e+003
3.409742e+003,2.100549e+003
3.411670e+003,1.886346e+003
3.413599e+003,1.745234e+003
3.415527e+003,1.666922e+003
3.417456e+003,1.560907e+003
3.419384e+003,1.460178e+003
3.421313e+003,1.445863e+003
3.423241e+003,1.449840e+003
3.425170e+003,1.418897e+003
3.427098e+003,1.399602e+003
3.429027e+003,1.409298e+003
3.430955e+003,1.414389e+003
3.432884e+003,1.410739e+003
3.434812e+003,1.409076e+003
3.436740e+003,1.408356e+003
3.438669e+003,1.408788e+003
3.440597e+003,1.402620e+003
3.442526e+003,1.366357e+003
3.444454e+003,1.349024e+003
3.446383e+003,1.384818e+003
3.448311e+003,1.396911e+003
3.450240e+003,1.357107e+003
3.452168e+003,1.349964e+003
3.454097e+003,1.369134e+003
3.456025e+003,1.372482e+003
3.457954e+003,1.362908e+003
3.459882e+003,1.334765e+003
3.461811e+003,1.313035e+003
3.463739e+003,1.313255e+003
3.465667e+003,1.320436e+003
3.467596e+003,1.339903e+003
3.469524e+003,1.332866e+003
3.471453e+003,1.303841e+003
3.473381e+003,1.304145e+003
3.475310e+003,1.316833e+003
3.477238e+003,1.300441e+003
3.479167e+003,1.287149e+003
3.481095e+003,1.312562e+003
3.483024e+003,1.323112e+003
3.484952e+003,1.293295e+003
3.486881e+003,1.292210e+003
3.488809e+003,1.320562e+003
3.490738e+003,1.302375e+003
3.492666e+003,1.263054e+003
3.494594e+003,1.269929e+003
3.496523e+003,1.289073e+003
3.498451e+003,1.299369e+003
3.500380e+003,1.302268e+003
3.502308e+003,1.297677e+003
3.504237e+003,1.289504e+003
3.506165e+003,1.277777e+003
3.508094e+003,1.273924e+003
3.510022e+003,1.277676e+003
3.511951e+003,1.294796e+003
3.513879e+003,1.310358e+003
3.515808e+003,1.311273e+003
3.517736e+003,1.305871e+003
3.519665e+003,1.290950e+003
3.521593e+003,1.308845e+003
3.523521e+003,1.362352e+003
3.525450e+003,1.363004e+003
3.527378e+003,1.333325e+003
3.529307e+003,1.308322e+003
3.531235e+003,1.295961e+003
3.533164e+003,1.309989e+003
3.535092e+003,1.319435e+003
3.537021e+003,1.316003e+003
3.538949e+003,1.302689e+003
3.540878e+003,1.282191e+003
3.542806e+003,1.271867e+003
3.544735e+003,1.269800e+003
3.546663e+003,1.278935e+003
3.548592e+003,1.284415e+003
3.550520e+003,1.273656e+003
3.552448e+003,1.267384e+003
3.554377e+003,1.266548e+003
3.556305e+003,1.300956e+003
3.558234e+003,1.354808e+003
3.560162e+003,1.354190e+003
3.562091e+003,1.332833e+003
3.564019e+003,1.336561e+003
3.565948e+003,1.332554e+003
3.567876e+003,1.286571e+003
3.569805e+003,1.276910e+003
3.571733e+003,1.308434e+003
3.573662e+003,1.349042e+003
3.575590e+003,1.378802e+003
3.577519e+003,1.324078e+003
3.579447e+003,1.267069e+003
3.581376e+003,1.285432e+003
3.583304e+003,1.297730e+003
3.585233e+003,1.276955e+003
3.587161e+003,1.275844e+003
3.589090e+003,1.293738e+003
3.591018e+003,1.290744e+003
3.592947e+003,1.282425e+003
3.594875e+003,1.300433e+003
3.596803e+003,1.311789e+003
3.598732e+003,1.290280e+003
3.600660e+003,1.276639e+003
3.602589e+003,1.275112e+003
3.604517e+003,1.300343e+003
3.606446e+003,1.325509e+003
3.608374e+003,1.233034e+003
3.610303e+003,1.147863e+003
3.612231e+003,1.192797e+003
3.614160e+003,1.238173e+003
3.616088e+003,1.251896e+003
3.618017e+003,1.287385e+003
3.619945e+003,1.338697e+003
3.621874e+003,1.324385e+003
3.623802e+003,1.286436e+003
3.625730e+003,1.270043e+003
3.627659e+003,1.268023e+003
3.629587e+003,1.281706e+003
3.631516e+003,1.290277e+003
3.633444e+003,1.291026e+003
3.635373e+003,1.297019e+003
3.637301e+003,1.300885e+003
3.639230e+003,1.284791e+003
3.641158e+003,1.265474e+003
3.643087e+003,1.245450e+003
3.645015e+003,1.249569e+003
3.646944e+003,1.283810e+003
3.648872e+003,1.290253e+003
3.650801e+003,1.277336e+003
3.652729e+003,1.278009e+003
3.654657e+003,1.281247e+003
3.656586e+003,1.278058e+003
3.658514e+003,1.273788e+003
3.660443e+003,1.269280e+003
3.662371e+003,1.267813e+003
3.664300e+003,1.269923e+003
3.666228e+003,1.279454e+003
3.668157e+003,1.289653e+003
3.670085e+003,1.290738e+003
3.672014e+003,1.297249e+003
3.673942e+003,1.316392e+003
3.675871e+003,1.309443e+003
3.677799e+003,1.279755e+003
3.679728e+003,1.278762e+003
3.681656e+003,1.289400e+003
3.683584e+003,1.289604e+003
3.685513e+003,1.297075e+003
3.687441e+003,1.320613e+003
3.689370e+003,1.337414e+003
3.691298e+003,1.343467e+003
3.693227e+003,1.314514e+003
3.695155e+003,1.279522e+003
3.697084e+003,1.271033e+003
3.699012e+003,1.285983e+003
3.700941e+003,1.334323e+003
3.702869e+003,1.343907e+003
3.704798e+003,1.310127e+003
3.706726e+003,1.285774e+003
3.708655e+003,1.274294e+003
3.710583e+003,1.278820e+003
3.712511e+003,1.298670e+003
3.714440e+003,1.346929e+003
3.716368e+003,1.343638e+003
3.718297e+003,1.285209e+003
3.720225e+003,1.250741e+003
3.722154e+003,1.244844e+003
3.724082e+003,1.298123e+003
3.726011e+003,1.325951e+003
3.727939e+003,1.281732e+003
3.729868e+003,1.259005e+003
3.731796e+003,1.263704e+003
3.733725e+003,1.249869e+003
3.735653e+003,1.240323e+003
3.737582e+003,1.280711e+003
3.739510e+003,1.300504e+003
3.741438e+003,1.264129e+003
3.743367e+003,1.247459e+003
3.745295e+003,1.252951e+003
3.747224e+003,1.246446e+003
3.749152e+003,1.245835e+003
3.751081e+003,1.282698e+003
3.753009e+003,1.304482e+003
3.754938e+003,1.291228e+003
3.756866e+003,1.283642e+003
3.758795e+003,1.280251e+003
3.760723e+003,1.259072e+003
3.762652e+003,1.237647e+003
3.764580e+003,1.223899e+003
3.766509e+003,1.235619e+003
3.768437e+003,1.280138e+003
3.770365e+003,1.312280e+003
3.772294e+003,1.327507e+003
3.774222e+003,1.315342e+003
3.776151e+003,1.290138e+003
3.778079e+003,1.250198e+003
3.780008e+003,1.234965e+003
3.781936e+003,1.249581e+003
3.783865e+003,1.277316e+003
3.785793e+003,1.299957e+003
3.787722e+003,1.262703e+003
3.789650e+003,1.241439e+003
3.791579e+003,1.292585e+003
3.793507e+003,1.301252e+003
3.795436e+003,1.264503e+003
3.797364e+003,1.276542e+003
3.799292e+003,1.310356e+003
3.801221e+003,1.345609e+003
3.803149e+003,1.356338e+003
3.805078e+003,1.327582e+003
3.807006e+003,1.290665e+003
3.808935e+003,1.255124e+003
3.810863e+003,1.253724e+003
3.812792e+003,1.268541e+003
3.814720e+003,1.299385e+003
3.816649e+003,1.299332e+003
3.818577e+003,1.246848e+003
3.820506e+003,1.261025e+003
3.822434e+003,1.308474e+003
3.824363e+003,1.331916e+003
3.826291e+003,1.324984e+003
3.828219e+003,1.270145e+003
3.830148e+003,1.263968e+003
3.832076e+003,1.310901e+003
3.834005e+003,1.322480e+003
3.835933e+003,1.317319e+003
3.837862e+003,1.318508e+003
3.839790e+003,1.305892e+003
3.841719e+003,1.273171e+003
3.843647e+003,1.256289e+003
3.845576e+003,1.254962e+003
3.847504e+003,1.268363e+003
3.849433e+003,1.287975e+003
3.851361e+003,1.320171e+003
3.853290e+003,1.324120e+003
3.855218e+003,1.299348e+003
3.857146e+003,1.280560e+003
3.859075e+003,1.274060e+003
3.861003e+003,1.305478e+003
3.862932e+003,1.305246e+003
3.864860e+003,1.228494e+003
3.866789e+003,1.228626e+003
3.868717e+003,1.280424e+003
3.870646e+003,1.297630e+003
3.872574e+003,1.303407e+003
3.874503e+003,1.310060e+003
3.876431e+003,1.320984e+003
3.878360e+003,1.335010e+003
3.880288e+003,1.315149e+003
3.882217e+003,1.289974e+003
3.884145e+003,1.307723e+003
3.886073e+003,1.302863e+003
3.888002e+003,1.245569e+003
3.889930e+003,1.284006e+003
3.891859e+003,1.360423e+003
3.893787e+003,1.295534e+003
3.895716e+003,1.245740e+003
3.897644e+003,1.310388e+003
3.899573e+003,1.315953e+003
3.901501e+003,1.257401e+003
3.903430e+003,1.269012e+003
3.905358e+003,1.291031e+003
3.907287e+003,1.249264e+003
3.909215e+003,1.241319e+003
3.911144e+003,1.282307e+003
3.913072e+003,1.318020e+003
3.915000e+003,1.332968e+003
3.916929e+003,1.280422e+003
3.918857e+003,1.250772e+003
3.920786e+003,1.296356e+003
3.922714e+003,1.298040e+003
3.924643e+003,1.270793e+003
3.926571e+003,1.283654e+003
3.928500e+003,1.287469e+003
3.930428e+003,1.238526e+003
3.932357e+003,1.238160e+003
3.934285e+003,1.284499e+003
3.936214e+003,1.269419e+003
3.938142e+003,1.246315e+003
3.940071e+003,1.280438e+003
3.941999e+003,1.292924e+003
3.943927e+003,1.264585e+003
3.945856e+003,1.226548e+003
3.947784e+003,1.208498e+003
3.949713e+003,1.287815e+003
3.951641e+003,1.312897e+003
3.953570e+003,1.235547e+003
3.955498e+003,1.242699e+003
3.957427e+003,1.299751e+003
3.959355e+003,1.303447e+003
3.961284e+003,1.282702e+003
3.963212e+003,1.235194e+003
3.965141e+003,1.227235e+003
3.967069e+003,1.248463e+003
3.968998e+003,1.226175e+003
3.970926e+003,1.220244e+003
3.972854e+003,1.291746e+003
3.974783e+003,1.318101e+003
3.976711e+003,1.295097e+003
3.978640e+003,1.273123e+003
3.980568e+003,1.262742e+003
3.982497e+003,1.277968e+003
3.984425e+003,1.296718e+003
3.986354e+003,1.315379e+003
3.988282e+003,1.278254e+003
3.990211e+003,1.240229e+003
3.992139e+003,1.297519e+003
3.994068e+003,1.304702e+003
3.995996e+003,1.229643e+003
3.997925e+003,1.249390e+003
3.999853e+003,1.300061e+003
4.001781e+003,1.262009e+003
4.003710e+003,1.222096e+003
4.005638e+003,1.206214e+003
4.007567e+003,1.202325e+003
4.009495e+003,1.210611e+003
4.011424e+003,1.242552e+003
4.013352e+003,1.271418e+003
4.015281e+003,1.293051e+003
4.017209e+003,1.263359e+003
4.019138e+003,1.217062e+003
4.021066e+003,1.257700e+003
4.022995e+003,1.285828e+003
4.024923e+003,1.252204e+003
4.026852e+003,1.246219e+003
4.028780e+003,1.262102e+003
4.030708e+003,1.260097e+003
4.032637e+003,1.245577e+003
4.034565e+003,1.211163e+003
4.036494e+003,1.228974e+003
4.038422e+003,1.280186e+003
4.040351e+003,1.265600e+003
4.042279e+003,1.228298e+003
4.044208e+003,1.177273e+003
4.046136e+003,1.165570e+003
4.048065e+003,1.188768e+003
4.049993e+003,1.229927e+003
4.051922e+003,1.247030e+003
4.053850e+003,1.202967e+003
4.055779e+003,1.199998e+003
4.057707e+003,1.236181e+003
4.059635e+003,1.259754e+003
4.061564e+003,1.270618e+003
4.063492e+003,1.269963e+003
4.065421e+003,1.236772e+003
4.067349e+003,1.185686e+003
4.069278e+003,1.225048e+003
4.071206e+003,1.272371e+003
4.073135e+003,1.271024e+003
4.075063e+003,1.253087e+003
4.076992e+003,1.223187e+003
4.078920e+003,1.186266e+003
4.080849e+003,1.159350e+003
4.082777e+003,1.149276e+003
4.084706e+003,1.176797e+003
4.086634e+003,1.221918e+003
4.088563e+003,1.191813e+003
4.090491e+003,1.165080e+003
4.092419e+003,1.192537e+003
4.094348e+003,1.191678e+003
4.096276e+003,1.166583e+003
4.098205e+003,1.153489e+003
4.100133e+003,1.160339e+003
4.102062e+003,1.199709e+003
4.103990e+003,1.225609e+003
4.105919e+003,1.237623e+003
4.107847e+003,1.246548e+003
4.109776e+003,1.244457e+003
4.111704e+003,1.217231e+003
4.113633e+003,1.205676e+003
4.115561e+003,1.209921e+003
4.117490e+003,1.237967e+003
4.119418e+003,1.253947e+003
4.121347e+003,1.244176e+003
4.123275e+003,1.215538e+003
4.125204e+003,1.187420e+003
4.127132e+003,1.196055e+003
4.129061e+003,1.218108e+003
4.130989e+003,1.246489e+003
4.132917e+003,1.242224e+003
4.134846e+003,1.214183e+003
4.136774e+003,1.155452e+003
4.138703e+003,1.145628e+003
4.140631e+003,1.205326e+003
4.142560e+003,1.240563e+003
4.144488e+003,1.244849e+003
4.146417e+003,1.187956e+003
4.148345e+003,1.163521e+003
4.150273e+003,1.186449e+003
4.152202e+003,1.214861e+003
4.154130e+003,1.233495e+003
4.156059e+003,1.220718e+003
4.157987e+003,1.211953e+003
4.159916e+003,1.208908e+003
4.161844e+003,1.205154e+003
4.163773e+003,1.192473e+003
4.165701e+003,1.151505e+003
4.167630e+003,1.155022e+003
4.169558e+003,1.190101e+003
4.171487e+003,1.221611e+003
4.173415e+003,1.218393e+003
4.175344e+003,1.161998e+003
4.177272e+003,1.168365e+003
4.179201e+003,1.205795e+003
4.181129e+003,1.202852e+003
4.183058e+003,1.195310e+003
4.184986e+003,1.192991e+003
4.186915e+003,1.200023e+003
4.188843e+003,1.207920e+003
4.190771e+003,1.210626e+003
4.192700e+003,1.189776e+003
4.194628e+003,1.149305e+003
4.196557e+003,1.191177e+003
4.198485e+003,1.237277e+003
4.200414e+003,1.225443e+003
4.202342e+003,1.220576e+003
4.204271e+003,1.227410e+003
4.206199e+003,1.240304e+003
4.208127e+003,1.243314e+003
4.210056e+003,1.224786e+003
4.211984e+003,1.210587e+003
4.213913e+003,1.205487e+003
4.215841e+003,1.228953e+003
4.217770e+003,1.238942e+003
4.219698e+003,1.223354e+003
4.221627e+003,1.180891e+003
4.223555e+003,1.149429e+003
4.225484e+003,1.192399e+003
4.227412e+003,1.203093e+003
4.229341e+003,1.178011e+003
4.231269e+003,1.204792e+003
4.233198e+003,1.221220e+003
4.235126e+003,1.156782e+003
4.237055e+003,1.173986e+003
4.238983e+003,1.234995e+003
4.240912e+003,1.234173e+003
4.242840e+003,1.220486e+003
4.244769e+003,1.209592e+003
4.246697e+003,1.216867e+003
4.248625e+003,1.223158e+003
4.250554e+003,1.215921e+003
