1.159199e+002,6.558582e+002
1.178484e+002,7.531263e+002
1.197769e+002,8.279955e+002
1.217053e+002,8.788420e+002
1.236338e+002,9.078286e+002
1.255623e+002,9.100875e+002
1.274907e+002,8.936740e+002
1.294192e+002,8.677581e+002
1.313477e+002,8.189417e+002
1.332761e+002,7.752278e+002
1.352046e+002,7.515559e+002
1.371331e+002,7.540543e+002
1.390615e+002,7.355938e+002
1.409900e+002,6.736769e+002
1.429185e+002,5.871844e+002
1.448469e+002,5.090296e+002
1.467754e+002,4.368888e+002
1.487039e+002,3.753397e+002
1.506323e+002,3.301868e+002
1.525608e+002,3.015382e+002
1.544893e+002,2.776887e+002
1.564177e+002,2.567503e+002
1.583462e+002,2.387536e+002
1.602747e+002,2.234469e+002
1.622031e+002,2.118680e+002
1.641316e+002,2.020098e+002
1.660601e+002,1.925626e+002
1.679885e+002,1.831001e+002
1.699170e+002,1.749198e+002
1.718455e+002,1.692023e+002
1.737739e+002,1.657338e+002
1.757024e+002,1.592577e+002
1.776309e+002,1.442174e+002
1.795593e+002,1.292402e+002
1.814878e+002,1.214795e+002
1.834163e+002,1.304454e+002
1.853447e+002,1.368314e+002
1.872732e+002,1.366480e+002
1.892017e+002,1.306013e+002
1.911301e+002,1.239267e+002
1.930586e+002,1.144135e+002
1.949871e+002,1.054367e+002
1.969155e+002,1.021493e+002
1.988440e+002,1.083705e+002
2.007725e+002,1.156432e+002
2.027009e+002,1.232871e+002
2.046294e+002,1.322535e+002
2.065579e+002,1.349418e+002
2.084864e+002,1.278292e+002
2.104148e+002,1.141837e+002
2.123433e+002,1.011191e+002
2.142718e+002,8.827394e+001
2.162002e+002,7.625007e+001
2.181287e+002,6.497126e+001
2.200572e+002,5.406898e+001
2.219856e+002,4.526417e+001
2.239141e+002,3.899062e+001
2.258426e+002,3.501484e+001
2.277710e+002,3.203584e+001
2.296995e+002,3.074726e+001
2.316280e+002,2.979918e+001
2.335564e+002,2.854906e+001
2.354849e+002,2.664772e+001
2.374134e+002,2.491828e+001
2.393418e+002,2.340500e+001
2.412703e+002,2.206175e+001
2.431988e+002,2.077772e+001
2.451272e+002,1.930125e+001
2.470557e+002,1.807413e+001
2.489842e+002,1.745672e+001
2.509126e+002,1.796035e+001
2.528411e+002,1.798374e+001
2.547696e+002,1.669523e+001
2.566980e+002,1.468492e+001
2.586265e+002,1.353884e+001
2.605550e+002,1.450437e+001
2.624834e+002,1.553100e+001
2.644119e+002,1.552957e+001
2.663404e+002,1.443658e+001
2.682688e+002,1.288497e+001
2.701973e+002,1.025494e+001
2.721258e+002,6.970819e+000
2.740542e+002,5.295499e+000
2.759827e+002,6.060067e+000
2.779112e+002,7.656186e+000
2.798396e+002,9.340845e+000
2.817681e+002,1.107946e+001
2.836966e+002,1.297420e+001
2.856250e+002,1.517615e+001
2.875535e+002,1.758125e+001
2.894820e+002,1.973631e+001
2.914104e+002,2.148199e+001
2.933389e+002,2.318340e+001
2.952674e+002,2.503179e+001
2.971958e+002,2.707958e+001
2.991243e+002,2.911098e+001
3.010528e+002,3.144569e+001
3.029813e+002,3.378028e+001
3.049097e+002,3.518031e+001
3.068382e+002,3.504966e+001
3.087667e+002,3.462761e+001
3.106951e+002,3.482539e+001
3.126236e+002,3.641523e+001
3.145521e+002,3.592039e+001
3.164805e+002,3.111193e+001
3.184090e+002,2.434179e+001
3.203375e+002,2.063391e+001
3.222659e+002,2.221908e+001
3.241944e+002,2.363531e+001
3.261229e+002,2.240065e+001
3.280513e+002,1.646165e+001
3.299798e+002,1.325449e+001
3.319083e+002,1.328946e+001
3.338367e+002,1.595303e+001
3.357652e+002,2.017665e+001
3.376937e+002,2.677680e+001
3.396221e+002,3.357935e+001
3.415506e+002,4.019885e+001
3.434791e+002,4.676710e+001
3.454075e+002,5.179415e+001
3.473360e+002,5.415282e+001
3.492645e+002,5.561850e+001
3.511929e+002,5.816102e+001
3.531214e+002,6.362383e+001
3.550499e+002,6.648890e+001
3.569783e+002,6.476679e+001
3.589068e+002,5.844164e+001
3.608353e+002,5.271867e+001
3.627637e+002,4.813038e+001
3.646922e+002,4.374985e+001
3.666207e+002,3.890647e+001
3.685491e+002,3.295536e+001
3.704776e+002,2.798864e+001
3.724061e+002,2.463747e+001
3.743345e+002,2.257743e+001
3.762630e+002,2.045926e+001
3.781915e+002,1.835966e+001
3.801199e+002,1.608706e+001
3.820484e+002,1.338066e+001
3.839769e+002,9.602818e+000
3.859053e+002,7.057721e+000
3.878338e+002,6.538352e+000
3.897623e+002,7.118662e+000
3.916907e+002,7.085356e+000
3.936192e+002,5.436672e+000
3.955477e+002,4.955073e+000
3.974761e+002,7.006629e+000
3.994046e+002,1.234215e+001
4.013331e+002,1.582888e+001
4.032615e+002,1.713980e+001
4.051900e+002,1.694086e+001
4.071185e+002,1.552282e+001
4.090469e+002,1.217974e+001
4.109754e+002,9.772018e+000
4.129039e+002,9.156172e+000
4.148323e+002,1.010136e+001
4.167608e+002,1.111760e+001
4.186893e+002,1.241652e+001
4.206177e+002,1.359579e+001
4.225462e+002,1.450543e+001
4.244747e+002,1.516105e+001
4.264032e+002,1.549655e+001
4.283316e+002,1.542932e+001
4.302601e+002,1.508200e+001
4.321886e+002,1.450887e+001
4.341170e+002,1.286498e+001
4.360455e+002,1.226049e+001
4.379740e+002,1.416381e+001
4.399024e+002,1.828489e+001
4.418309e+002,2.119563e+001
4.437594e+002,2.075834e+001
4.456878e+002,2.029354e+001
4.476163e+002,2.199367e+001
4.495448e+002,2.557293e+001
4.514732e+002,3.151854e+001
4.534017e+002,4.415715e+001
4.553302e+002,5.937505e+001
4.572586e+002,6.745353e+001
4.591871e+002,6.382248e+001
4.611156e+002,5.726484e+001
4.630440e+002,4.830750e+001
4.649725e+002,3.709550e+001
4.669010e+002,2.902285e+001
4.688294e+002,2.698990e+001
4.707579e+002,2.722885e+001
4.726864e+002,2.680884e+001
4.746148e+002,2.511154e+001
4.765433e+002,2.340525e+001
4.784718e+002,2.149750e+001
4.804002e+002,1.964236e+001
4.823287e+002,1.841332e+001
4.842572e+002,1.808352e+001
4.861856e+002,1.812751e+001
4.881141e+002,1.844710e+001
4.900426e+002,1.927020e+001
4.919710e+002,1.952590e+001
4.938995e+002,1.817049e+001
4.958280e+002,1.689622e+001
4.977564e+002,1.746468e+001
4.996849e+002,2.079268e+001
5.016134e+002,2.322017e+001
5.035418e+002,2.266931e+001
5.054703e+002,2.022334e+001
5.073988e+002,2.059469e+001
5.093272e+002,2.589661e+001
5.112557e+002,3.154130e+001
5.131842e+002,3.657563e+001
5.151127e+002,4.109196e+001
5.170411e+002,4.292925e+001
5.189696e+002,3.963973e+001
5.208981e+002,3.479301e+001
5.228265e+002,3.121762e+001
5.247550e+002,2.989764e+001
5.266835e+002,2.787209e+001
5.286119e+002,2.387478e+001
5.305404e+002,1.899963e+001
5.324689e+002,1.511075e+001
5.343973e+002,1.227842e+001
5.363258e+002,1.060645e+001
5.382543e+002,1.056413e+001
5.401827e+002,1.233152e+001
5.421112e+002,1.353054e+001
5.440397e+002,1.397372e+001
5.459681e+002,1.393505e+001
5.478966e+002,1.321106e+001
5.498251e+002,1.098514e+001
5.517535e+002,1.091893e+001
5.536820e+002,1.602395e+001
5.556105e+002,2.258164e+001
5.575389e+002,2.416928e+001
5.594674e+002,1.873816e+001
5.613959e+002,1.349545e+001
5.633243e+002,1.038324e+001
5.652528e+002,9.111030e+000
5.671813e+002,9.144692e+000
5.691097e+002,1.298416e+001
5.710382e+002,1.591968e+001
5.729667e+002,1.475646e+001
5.748951e+002,8.920362e+000
5.768236e+002,6.578423e+000
5.787521e+002,1.214895e+001
5.806805e+002,1.924284e+001
5.826090e+002,2.200355e+001
5.845375e+002,1.440914e+001
5.864659e+002,1.451517e+001
5.883944e+002,2.739690e+001
5.903229e+002,4.834096e+001
5.922513e+002,6.986407e+001
5.941798e+002,9.867787e+001
5.961083e+002,1.152267e+002
5.980367e+002,1.055480e+002
5.999652e+002,7.293770e+001
6.018937e+002,5.394249e+001
6.038221e+002,4.805047e+001
6.057506e+002,5.524242e+001
6.076791e+002,8.744240e+001
6.096075e+002,1.449739e+002
6.115360e+002,1.784987e+002
6.134645e+002,1.695448e+002
6.153929e+002,1.412630e+002
6.173214e+002,1.091339e+002
6.192499e+002,6.550762e+001
6.211783e+002,3.351532e+001
6.231068e+002,1.858708e+001
6.250353e+002,1.455414e+001
6.269637e+002,1.198572e+001
6.288922e+002,1.089602e+001
6.308207e+002,1.099198e+001
6.327491e+002,1.317314e+001
6.346776e+002,1.671104e+001
6.366061e+002,1.844660e+001
6.385345e+002,1.723785e+001
6.404630e+002,1.534721e+001
6.423915e+002,1.272018e+001
6.443199e+002,9.605687e+000
6.462484e+002,8.100258e+000
6.481769e+002,9.704018e+000
6.501053e+002,1.170430e+001
6.520338e+002,1.252764e+001
6.539623e+002,1.149098e+001
6.558907e+002,1.126432e+001
6.578192e+002,1.124937e+001
6.597477e+002,1.234708e+001
6.616761e+002,1.589952e+001
6.636046e+002,2.232377e+001
6.655331e+002,2.844823e+001
6.674615e+002,3.301835e+001
6.693900e+002,3.698723e+001
6.713185e+002,4.158767e+001
6.732469e+002,5.163020e+001
6.751754e+002,5.648645e+001
6.771039e+002,5.184738e+001
6.790323e+002,4.093797e+001
6.809608e+002,3.295613e+001
6.828893e+002,2.904432e+001
6.848177e+002,2.619785e+001
6.867462e+002,2.311488e+001
6.886747e+002,1.984086e+001
6.906031e+002,1.778471e+001
6.925316e+002,1.802735e+001
6.944601e+002,1.840550e+001
6.963885e+002,1.789762e+001
6.983170e+002,1.657412e+001
7.002455e+002,1.568233e+001
7.021740e+002,1.552108e+001
7.041024e+002,1.568989e+001
7.060309e+002,1.612592e+001
7.079594e+002,1.721959e+001
7.098878e+002,1.722831e+001
7.118163e+002,1.445770e+001
7.137448e+002,1.169619e+001
7.156732e+002,1.194957e+001
7.176017e+002,1.560872e+001
7.195302e+002,1.861818e+001
7.214586e+002,1.914760e+001
7.233871e+002,1.912372e+001
7.253156e+002,2.010316e+001
7.272440e+002,1.967988e+001
7.291725e+002,2.487924e+001
7.311010e+002,3.889846e+001
7.330294e+002,5.827273e+001
7.349579e+002,7.897912e+001
7.368864e+002,1.072195e+002
7.388149e+002,1.225085e+002
7.407433e+002,1.095456e+002
7.426718e+002,7.933326e+001
7.446003e+002,5.518904e+001
7.465287e+002,3.903593e+001
7.484572e+002,2.767831e+001
7.503857e+002,2.236140e+001
7.523141e+002,2.201587e+001
7.542426e+002,2.138454e+001
7.561711e+002,1.996897e+001
7.580995e+002,1.905019e+001
7.600280e+002,1.946139e+001
7.619565e+002,2.091888e+001
7.638849e+002,2.197227e+001
7.658134e+002,2.061285e+001
7.677419e+002,2.075237e+001
7.696703e+002,2.420337e+001
7.715988e+002,3.103969e+001
7.735273e+002,3.752992e+001
7.754557e+002,4.579316e+001
7.773842e+002,5.133455e+001
7.793127e+002,5.099444e+001
7.812411e+002,4.525598e+001
7.831696e+002,4.008747e+001
7.850981e+002,3.578991e+001
7.870266e+002,3.251606e+001
7.889550e+002,2.971194e+001
7.908835e+002,2.704405e+001
7.928120e+002,2.855105e+001
7.947404e+002,3.432618e+001
7.966689e+002,4.437068e+001
7.985974e+002,5.646086e+001
8.005258e+002,7.021250e+001
8.024543e+002,9.592243e+001
8.043828e+002,1.459568e+002
8.063112e+002,2.003467e+002
8.082397e+002,2.511302e+002
8.101682e+002,3.012224e+002
8.120966e+002,3.332846e+002
8.140251e+002,3.357250e+002
8.159536e+002,3.288869e+002
8.178820e+002,3.272556e+002
8.198105e+002,3.312921e+002
8.217390e+002,3.302174e+002
8.236674e+002,3.297929e+002
8.255959e+002,3.176256e+002
8.275244e+002,2.821975e+002
8.294528e+002,2.083697e+002
8.313813e+002,1.493940e+002
8.333098e+002,1.062953e+002
8.352382e+002,7.613522e+001
8.371667e+002,5.935435e+001
8.390952e+002,5.566646e+001
8.410236e+002,5.517659e+001
8.429521e+002,6.041263e+001
8.448806e+002,6.481860e+001
8.468090e+002,6.342788e+001
8.487375e+002,5.280473e+001
8.506660e+002,4.526614e+001
8.525944e+002,4.430679e+001
8.545229e+002,4.385946e+001
8.564514e+002,3.770442e+001
8.583798e+002,2.537684e+001
8.603083e+002,1.753780e+001
8.622368e+002,1.912444e+001
8.641652e+002,2.301756e+001
8.660937e+002,2.407832e+001
8.680222e+002,2.113368e+001
8.699506e+002,2.091031e+001
8.718791e+002,2.815337e+001
8.738076e+002,3.456688e+001
8.757360e+002,3.317184e+001
8.776645e+002,2.253933e+001
8.795930e+002,1.673666e+001
8.815214e+002,2.070346e+001
8.834499e+002,2.604425e+001
8.853784e+002,2.808927e+001
8.873068e+002,2.685580e+001
8.892353e+002,2.443221e+001
8.911638e+002,1.697152e+001
8.930922e+002,1.201628e+001
8.950207e+002,1.385274e+001
8.969492e+002,2.345125e+001
8.988776e+002,3.285676e+001
9.008061e+002,4.466941e+001
9.027346e+002,5.387799e+001
9.046630e+002,5.817080e+001
9.065915e+002,5.805611e+001
9.085200e+002,5.344388e+001
9.104484e+002,4.008269e+001
9.123769e+002,2.780955e+001
9.143054e+002,2.072525e+001
9.162338e+002,1.858768e+001
9.181623e+002,1.674211e+001
9.200908e+002,1.406209e+001
9.220192e+002,1.281718e+001
9.239477e+002,1.520493e+001
9.258762e+002,1.983364e+001
9.278046e+002,2.158491e+001
9.297331e+002,1.827703e+001
9.316616e+002,1.578445e+001
9.335900e+002,1.661970e+001
9.355185e+002,1.992714e+001
9.374470e+002,2.344345e+001
9.393754e+002,2.779679e+001
9.413039e+002,3.149158e+001
9.432324e+002,3.500440e+001
9.451608e+002,3.758713e+001
9.470893e+002,3.734305e+001
9.490178e+002,3.328794e+001
9.509462e+002,2.965803e+001
9.528747e+002,2.724263e+001
9.548032e+002,2.592776e+001
9.567316e+002,2.567363e+001
9.586601e+002,2.675148e+001
9.605886e+002,2.797310e+001
9.625170e+002,2.899582e+001
9.644455e+002,3.014004e+001
9.663740e+002,3.098461e+001
9.683024e+002,2.913204e+001
9.702309e+002,3.381430e+001
9.721594e+002,4.428487e+001
9.740878e+002,6.197386e+001
9.760163e+002,8.837442e+001
9.779448e+002,1.229232e+002
9.798733e+002,1.632130e+002
9.818018e+002,1.937642e+002
9.837302e+002,2.493190e+002
9.856587e+002,3.411342e+002
9.875872e+002,4.685663e+002
9.895156e+002,6.387197e+002
9.914441e+002,9.772733e+002
9.933726e+002,1.216611e+003
9.953010e+002,1.259640e+003
9.972295e+002,1.130781e+003
9.991580e+002,9.312398e+002
1.001086e+003,6.025803e+002
1.003015e+003,3.252004e+002
1.004943e+003,1.775609e+002
1.006872e+003,1.153532e+002
1.008800e+003,7.867281e+001
1.010729e+003,7.398238e+001
1.012657e+003,7.924903e+001
1.014586e+003,9.025949e+001
1.016514e+003,1.081803e+002
1.018443e+003,1.352815e+002
1.020371e+003,1.762225e+002
1.022300e+003,2.152331e+002
1.024228e+003,2.681819e+002
1.026156e+003,3.062820e+002
1.028085e+003,3.042602e+002
1.030013e+003,2.661025e+002
1.031942e+003,2.196971e+002
1.033870e+003,1.559504e+002
1.035799e+003,1.008650e+002
1.037727e+003,6.714645e+001
1.039656e+003,5.357603e+001
1.041584e+003,4.257941e+001
1.043513e+003,3.456373e+001
1.045441e+003,2.871329e+001
1.047370e+003,2.529254e+001
1.049298e+003,2.395150e+001
1.051227e+003,2.433302e+001
1.053155e+003,2.760754e+001
1.055083e+003,2.918935e+001
1.057012e+003,2.554976e+001
1.058940e+003,2.113319e+001
1.060869e+003,2.059658e+001
1.062797e+003,2.468910e+001
1.064726e+003,2.795429e+001
1.066654e+003,2.923585e+001
1.068583e+003,2.958640e+001
1.070511e+003,2.956936e+001
1.072440e+003,2.922188e+001
1.074368e+003,2.787571e+001
1.076297e+003,2.421003e+001
1.078225e+003,2.116630e+001
1.080154e+003,1.935763e+001
1.082082e+003,1.903141e+001
1.084010e+003,2.126304e+001
1.085939e+003,2.839388e+001
1.087867e+003,3.205631e+001
1.089796e+003,2.524432e+001
1.091724e+003,1.554697e+001
1.093653e+003,1.226515e+001
1.095581e+003,1.792875e+001
1.097510e+003,2.179593e+001
1.099438e+003,2.081280e+001
1.101367e+003,1.935697e+001
1.103295e+003,2.013851e+001
1.105224e+003,2.334600e+001
1.107152e+003,2.718782e+001
1.109081e+003,3.144932e+001
1.111009e+003,3.658807e+001
1.112938e+003,4.434692e+001
1.114866e+003,5.294650e+001
1.116794e+003,5.832893e+001
1.118723e+003,5.999070e+001
1.120651e+003,5.940535e+001
1.122580e+003,5.585297e+001
1.124508e+003,5.085712e+001
1.126437e+003,4.545501e+001
1.128365e+003,3.865408e+001
1.130294e+003,3.479905e+001
1.132222e+003,3.469373e+001
1.134151e+003,3.674506e+001
1.136079e+003,3.816077e+001
1.138008e+003,3.975742e+001
1.139936e+003,5.153669e+001
1.141865e+003,8.133682e+001
1.143793e+003,1.092382e+002
1.145721e+003,1.328945e+002
1.147650e+003,1.487686e+002
1.149578e+003,1.511391e+002
1.151507e+003,1.375951e+002
1.153435e+003,1.210107e+002
1.155364e+003,9.778176e+001
1.157292e+003,7.828928e+001
1.159221e+003,7.111816e+001
1.161149e+003,7.853011e+001
1.163078e+003,8.160925e+001
1.165006e+003,7.215417e+001
1.166935e+003,6.809402e+001
1.168863e+003,7.623793e+001
1.170792e+003,9.381176e+001
1.172720e+003,1.148830e+002
1.174648e+003,1.443469e+002
1.176577e+003,1.644609e+002
1.178505e+003,1.701476e+002
1.180434e+003,1.657107e+002
1.182362e+003,1.516886e+002
1.184291e+003,1.285811e+002
1.186219e+003,1.108926e+002
1.188148e+003,9.771309e+001
1.190076e+003,9.493448e+001
1.192005e+003,9.815770e+001
1.193933e+003,1.126338e+002
1.195862e+003,1.572880e+002
1.197790e+003,2.621393e+002
1.199719e+003,3.498697e+002
1.201647e+003,4.225192e+002
1.203575e+003,4.691616e+002
1.205504e+003,4.766690e+002
1.207432e+003,4.405021e+002
1.209361e+003,3.895153e+002
1.211289e+003,3.072177e+002
1.213218e+003,2.304409e+002
1.215146e+003,1.744540e+002
1.217075e+003,1.350581e+002
1.219003e+003,1.044150e+002
1.220932e+003,8.331364e+001
1.222860e+003,6.733811e+001
1.224789e+003,5.851855e+001
1.226717e+003,5.196350e+001
1.228646e+003,4.387818e+001
1.230574e+003,3.378805e+001
1.232502e+003,2.687006e+001
1.234431e+003,2.524247e+001
1.236359e+003,2.456074e+001
1.238288e+003,2.373175e+001
1.240216e+003,2.311543e+001
1.242145e+003,2.366816e+001
1.244073e+003,2.638062e+001
1.246002e+003,2.773178e+001
1.247930e+003,2.601153e+001
1.249859e+003,2.414534e+001
1.251787e+003,2.445706e+001
1.253716e+003,2.637376e+001
1.255644e+003,2.736214e+001
1.257573e+003,2.703684e+001
1.259501e+003,2.628407e+001
1.261429e+003,2.535531e+001
1.263358e+003,2.417245e+001
1.265286e+003,2.219642e+001
1.267215e+003,1.899291e+001
1.269143e+003,1.780726e+001
1.271072e+003,1.952099e+001
1.273000e+003,2.287897e+001
1.274929e+003,2.680419e+001
1.276857e+003,3.198863e+001
1.278786e+003,4.076640e+001
1.280714e+003,5.826598e+001
1.282643e+003,7.200405e+001
1.284571e+003,8.037334e+001
1.286500e+003,8.601305e+001
1.288428e+003,8.688151e+001
1.290356e+003,8.442726e+001
1.292285e+003,9.631466e+001
1.294213e+003,1.308159e+002
1.296142e+003,1.651566e+002
1.298070e+003,2.019071e+002
1.299999e+003,2.276243e+002
1.301927e+003,2.221704e+002
1.303856e+003,1.830854e+002
1.305784e+003,1.537659e+002
1.307713e+003,1.468415e+002
1.309641e+003,1.428683e+002
1.311570e+003,1.344745e+002
1.313498e+003,1.226903e+002
1.315427e+003,1.092525e+002
1.317355e+003,8.873413e+001
1.319283e+003,7.880791e+001
1.321212e+003,8.795278e+001
1.323140e+003,1.007276e+002
1.325069e+003,1.085153e+002
1.326997e+003,1.115750e+002
1.328926e+003,1.126420e+002
1.330854e+003,1.114083e+002
1.332783e+003,1.088740e+002
1.334711e+003,1.055709e+002
1.336640e+003,1.007769e+002
1.338568e+003,9.203970e+001
1.340497e+003,7.999191e+001
1.342425e+003,7.320316e+001
1.344354e+003,7.626855e+001
1.346282e+003,7.729687e+001
1.348210e+003,6.881043e+001
1.350139e+003,5.726480e+001
1.352068e+003,5.015667e+001
1.353996e+003,4.770070e+001
1.355924e+003,4.643974e+001
1.357853e+003,4.629060e+001
1.359781e+003,4.675682e+001
1.361710e+003,4.911018e+001
1.363638e+003,5.151294e+001
1.365567e+003,4.970593e+001
1.367495e+003,4.102874e+001
1.369424e+003,3.552196e+001
1.371352e+003,3.637465e+001
1.373281e+003,3.751933e+001
1.375209e+003,3.519077e+001
1.377138e+003,3.092873e+001
1.379066e+003,2.993883e+001
1.380995e+003,3.436017e+001
1.382923e+003,3.779476e+001
1.384851e+003,3.915136e+001
1.386780e+003,4.006112e+001
1.388708e+003,3.935799e+001
1.390637e+003,3.883585e+001
1.392565e+003,4.491247e+001
1.394494e+003,5.767135e+001
1.396422e+003,7.670647e+001
1.398351e+003,1.127135e+002
1.400279e+003,1.452628e+002
1.402208e+003,1.612935e+002
1.404136e+003,1.623436e+002
1.406065e+003,1.502995e+002
1.407993e+003,1.203094e+002
1.409922e+003,9.220387e+001
1.411850e+003,7.014613e+001
1.413778e+003,5.355665e+001
1.415707e+003,4.197621e+001
1.417635e+003,3.543731e+001
1.419564e+003,3.415187e+001
1.421492e+003,3.909379e+001
1.423421e+003,4.761761e+001
1.425349e+003,6.367797e+001
1.427278e+003,7.916598e+001
1.429206e+003,8.606082e+001
1.431135e+003,8.448965e+001
1.433063e+003,8.716472e+001
1.434992e+003,1.022489e+002
1.436920e+003,1.101976e+002
1.438849e+003,1.071997e+002
1.440777e+003,9.756529e+001
1.442705e+003,8.186131e+001
1.444634e+003,6.076302e+001
1.446562e+003,4.696052e+001
1.448491e+003,4.355312e+001
1.450419e+003,4.139602e+001
1.452348e+003,3.864446e+001
1.454276e+003,3.673239e+001
1.456205e+003,3.757941e+001
1.458133e+003,4.059161e+001
1.460062e+003,4.199238e+001
1.461990e+003,4.069736e+001
1.463919e+003,4.049619e+001
1.465847e+003,4.383216e+001
1.467776e+003,4.741412e+001
1.469704e+003,4.732610e+001
1.471632e+003,4.539317e+001
1.473561e+003,4.908637e+001
1.475489e+003,6.123783e+001
1.477418e+003,7.022050e+001
1.479346e+003,7.016117e+001
1.481275e+003,6.881773e+001
1.483203e+003,7.263570e+001
1.485132e+003,7.932320e+001
1.487060e+003,7.971388e+001
1.488989e+003,7.169493e+001
1.490917e+003,6.384394e+001
1.492846e+003,5.817596e+001
1.494774e+003,5.282483e+001
1.496703e+003,4.531413e+001
1.498631e+003,3.756834e+001
1.500559e+003,3.605217e+001
1.502488e+003,4.411455e+001
1.504416e+003,4.879733e+001
1.506345e+003,4.624661e+001
1.508273e+003,4.354119e+001
1.510202e+003,4.301285e+001
1.512130e+003,4.434401e+001
1.514059e+003,4.719170e+001
1.515987e+003,5.241311e+001
1.517916e+003,5.655034e+001
1.519844e+003,5.954350e+001
1.521773e+003,6.171220e+001
1.523701e+003,6.442975e+001
1.525630e+003,6.566218e+001
1.527558e+003,6.140249e+001
1.529486e+003,5.055539e+001
1.531415e+003,4.424611e+001
1.533343e+003,4.706571e+001
1.535272e+003,4.797564e+001
1.537200e+003,4.214412e+001
1.539129e+003,3.558974e+001
1.541057e+003,3.395782e+001
1.542986e+003,3.682198e+001
1.544914e+003,3.997337e+001
1.546843e+003,4.450863e+001
1.548771e+003,4.660250e+001
1.550700e+003,4.235489e+001
1.552628e+003,3.850267e+001
1.554557e+003,4.097889e+001
1.556485e+003,4.685509e+001
1.558413e+003,4.779978e+001
1.560342e+003,4.262412e+001
1.562270e+003,3.999372e+001
1.564199e+003,4.209783e+001
1.566127e+003,4.598447e+001
1.568056e+003,4.647815e+001
1.569984e+003,5.019417e+001
1.571913e+003,6.746465e+001
1.573841e+003,9.768600e+001
1.575770e+003,1.284334e+002
1.577698e+003,1.667866e+002
1.579627e+003,1.859391e+002
1.581555e+003,1.586366e+002
1.583484e+003,1.236227e+002
1.585412e+003,1.078837e+002
1.587340e+003,1.104652e+002
1.589269e+003,1.312773e+002
1.591197e+003,1.771102e+002
1.593126e+003,2.130367e+002
1.595054e+003,2.271545e+002
1.596983e+003,2.340283e+002
1.598911e+003,2.463029e+002
1.600840e+003,2.550675e+002
1.602768e+003,2.394950e+002
1.604697e+003,1.973947e+002
1.606625e+003,1.596255e+002
1.608554e+003,1.283499e+002
1.610482e+003,1.043707e+002
1.612411e+003,8.884316e+001
1.614339e+003,7.980989e+001
1.616267e+003,7.810432e+001
1.618196e+003,8.256848e+001
1.620124e+003,8.307727e+001
1.622053e+003,7.910612e+001
1.623981e+003,7.216066e+001
1.625910e+003,5.786779e+001
1.627838e+003,4.577199e+001
1.629767e+003,4.094481e+001
1.631695e+003,4.114282e+001
1.633624e+003,4.296520e+001
1.635552e+003,4.695199e+001
1.637481e+003,4.821096e+001
1.639409e+003,4.454342e+001
1.641338e+003,4.129758e+001
1.643266e+003,3.982868e+001
1.645194e+003,3.926403e+001
1.647123e+003,3.940489e+001
1.649051e+003,3.996888e+001
1.650980e+003,3.920038e+001
1.652908e+003,3.642854e+001
1.654837e+003,3.423299e+001
1.656765e+003,3.328049e+001
1.658694e+003,3.246861e+001
1.660622e+003,3.147303e+001
1.662551e+003,3.040315e+001
1.664479e+003,2.924733e+001
1.666408e+003,2.797683e+001
1.668336e+003,2.760557e+001
1.670265e+003,2.882090e+001
1.672193e+003,2.960643e+001
1.674121e+003,3.048266e+001
1.676050e+003,2.999657e+001
1.677978e+003,2.528224e+001
1.679907e+003,1.928292e+001
1.681835e+003,1.914421e+001
1.683764e+003,2.706449e+001
1.685692e+003,2.974991e+001
1.687621e+003,2.246808e+001
1.689549e+003,1.684400e+001
1.691478e+003,1.577397e+001
1.693406e+003,1.654830e+001
1.695335e+003,1.804106e+001
1.697263e+003,1.982213e+001
1.699192e+003,2.036363e+001
1.701120e+003,1.935818e+001
1.703048e+003,1.822471e+001
1.704977e+003,1.560055e+001
1.706905e+003,1.486274e+001
1.708834e+003,1.868806e+001
1.710762e+003,2.312212e+001
1.712691e+003,2.483445e+001
1.714619e+003,2.416753e+001
1.716548e+003,2.283234e+001
1.718476e+003,2.050658e+001
1.720405e+003,1.864017e+001
1.722333e+003,1.682567e+001
1.724262e+003,1.624438e+001
1.726190e+003,1.837601e+001
1.728119e+003,2.097129e+001
1.730047e+003,2.169338e+001
1.731975e+003,2.082077e+001
1.733904e+003,2.070798e+001
1.735832e+003,2.196260e+001
1.737761e+003,2.183992e+001
1.739689e+003,1.831112e+001
1.741618e+003,1.576389e+001
1.743546e+003,1.715641e+001
1.745475e+003,1.897582e+001
1.747403e+003,1.700495e+001
1.749332e+003,1.199143e+001
1.751260e+003,9.946112e+000
1.753189e+003,1.177992e+001
1.755117e+003,1.268334e+001
1.757046e+003,1.052037e+001
1.758974e+003,9.677479e+000
1.760902e+003,1.350556e+001
1.762831e+003,1.783134e+001
1.764759e+003,1.816595e+001
1.766688e+003,1.564426e+001
1.768616e+003,1.573485e+001
1.770545e+003,1.910874e+001
1.772473e+003,2.145918e+001
1.774402e+003,2.178040e+001
1.776330e+003,2.161925e+001
1.778259e+003,2.217152e+001
1.780187e+003,2.189861e+001
1.782116e+003,1.822015e+001
1.784044e+003,1.298740e+001
1.785973e+003,1.218007e+001
1.787901e+003,1.631475e+001
1.789829e+003,1.768612e+001
1.791758e+003,1.363771e+001
1.793686e+003,1.069206e+001
1.795615e+003,1.157463e+001
1.797543e+003,1.382862e+001
1.799472e+003,1.638725e+001
1.801400e+003,1.882962e+001
1.803329e+003,2.030691e+001
1.805257e+003,2.083235e+001
1.807186e+003,2.104328e+001
1.809114e+003,2.094553e+001
1.811043e+003,2.066648e+001
1.812971e+003,1.931065e+001
1.814900e+003,1.889733e+001
1.816828e+003,2.202259e+001
1.818756e+003,2.589675e+001
1.820685e+003,2.642842e+001
1.822613e+003,2.399170e+001
1.824542e+003,2.126630e+001
1.826470e+003,1.823465e+001
1.828399e+003,1.523718e+001
1.830327e+003,1.019438e+001
1.832256e+003,7.972673e+000
1.834184e+003,1.386897e+001
1.836113e+003,2.032842e+001
1.838041e+003,1.827020e+001
1.839970e+003,1.073247e+001
1.841898e+003,9.292240e+000
1.843827e+003,1.645235e+001
1.845755e+003,2.052288e+001
1.847684e+003,1.878347e+001
1.849612e+003,1.797406e+001
1.851541e+003,2.056246e+001
1.853469e+003,2.301670e+001
1.855397e+003,2.383228e+001
1.857326e+003,2.273902e+001
1.859254e+003,1.803580e+001
1.861183e+003,9.639001e+000
1.863111e+003,6.039009e+000
1.865040e+003,9.062830e+000
1.866968e+003,1.287803e+001
1.868897e+003,1.889556e+001
1.870825e+003,2.323259e+001
1.872754e+003,2.386414e+001
1.874682e+003,2.319408e+001
1.876611e+003,2.304940e+001
1.878539e+003,2.321856e+001
1.880468e+003,2.323802e+001
1.882396e+003,2.315035e+001
1.884324e+003,2.196515e+001
1.886253e+003,1.891032e+001
1.888181e+003,1.679711e+001
1.890110e+003,1.658707e+001
1.892038e+003,1.702636e+001
1.893967e+003,1.728979e+001
1.895895e+003,1.804318e+001
1.897824e+003,2.068465e+001
1.899752e+003,2.432433e+001
1.901681e+003,2.619492e+001
1.903609e+003,2.621554e+001
1.905538e+003,2.444551e+001
1.907466e+003,1.913422e+001
1.909395e+003,1.659055e+001
1.911323e+003,2.169906e+001
1.913251e+003,2.661291e+001
1.915180e+003,2.675552e+001
1.917108e+003,2.447486e+001
1.919037e+003,2.253750e+001
1.920965e+003,2.085882e+001
1.922894e+003,1.863514e+001
1.924822e+003,1.512576e+001
1.926751e+003,1.391555e+001
1.928679e+003,1.659407e+001
1.930608e+003,1.939256e+001
1.932536e+003,2.251371e+001
1.934465e+003,2.456165e+001
1.936393e+003,2.448551e+001
1.938322e+003,2.303369e+001
1.940250e+003,2.015015e+001
1.942178e+003,1.644635e+001
1.944107e+003,1.687761e+001
1.946035e+003,2.301263e+001
1.947964e+003,2.674890e+001
1.949892e+003,2.716252e+001
1.951821e+003,2.617234e+001
1.953749e+003,2.280481e+001
1.955678e+003,1.991368e+001
1.957606e+003,1.900568e+001
1.959535e+003,1.914471e+001
1.961463e+003,1.982918e+001
1.963392e+003,2.063886e+001
1.965320e+003,1.966259e+001
1.967249e+003,1.681117e+001
1.969177e+003,1.643056e+001
1.971105e+003,1.981086e+001
1.973034e+003,2.293437e+001
1.974962e+003,2.530496e+001
1.976891e+003,2.646217e+001
1.978819e+003,2.557837e+001
1.980748e+003,2.395221e+001
1.982676e+003,2.267250e+001
1.984605e+003,2.159063e+001
1.986533e+003,2.016912e+001
1.988462e+003,1.832991e+001
1.990390e+003,1.753236e+001
1.992319e+003,1.738836e+001
1.994247e+003,1.900337e+001
1.996176e+003,2.469118e+001
1.998104e+003,2.886833e+001
2.000032e+003,2.924357e+001
2.001961e+003,2.860544e+001
2.003889e+003,2.841254e+001
2.005818e+003,2.849530e+001
2.007746e+003,2.867111e+001
2.009675e+003,2.890608e+001
2.011603e+003,2.920438e+001
2.013532e+003,2.964269e+001
2.015460e+003,2.878376e+001
2.017389e+003,2.562558e+001
2.019317e+003,2.412095e+001
2.021246e+003,2.648462e+001
2.023174e+003,2.872258e+001
2.025103e+003,2.763319e+001
2.027031e+003,2.682550e+001
2.028959e+003,3.197431e+001
2.030888e+003,3.843259e+001
2.032816e+003,3.495558e+001
2.034745e+003,2.251183e+001
2.036673e+003,1.865300e+001
2.038602e+003,2.775385e+001
2.040530e+003,3.251505e+001
2.042459e+003,2.906872e+001
2.044387e+003,2.671083e+001
2.046316e+003,2.875407e+001
2.048244e+003,2.982433e+001
2.050173e+003,2.573239e+001
2.052101e+003,2.114451e+001
2.054030e+003,2.031770e+001
2.055958e+003,2.237962e+001
2.057886e+003,2.620484e+001
2.059815e+003,3.144641e+001
2.061743e+003,3.424874e+001
2.063672e+003,3.421000e+001
2.065600e+003,3.370318e+001
2.067529e+003,3.264406e+001
2.069457e+003,3.231803e+001
2.071386e+003,3.362264e+001
2.073314e+003,3.502584e+001
2.075243e+003,3.535901e+001
2.077171e+003,3.588717e+001
2.079100e+003,3.907417e+001
2.081028e+003,4.267717e+001
2.082957e+003,4.116974e+001
2.084885e+003,3.515574e+001
2.086813e+003,3.302635e+001
2.088742e+003,3.649933e+001
2.090670e+003,3.865129e+001
2.092599e+003,3.920287e+001
2.094527e+003,3.892869e+001
2.096456e+003,3.712044e+001
2.098384e+003,3.573273e+001
2.100313e+003,3.612329e+001
2.102241e+003,3.645252e+001
2.104170e+003,3.573845e+001
2.106098e+003,3.411831e+001
2.108027e+003,2.981495e+001
2.109955e+003,2.503153e+001
2.111884e+003,2.805754e+001
2.113812e+003,3.891465e+001
2.115740e+003,4.468409e+001
2.117669e+003,4.347005e+001
2.119597e+003,4.112527e+001
2.121526e+003,3.687288e+001
2.123454e+003,3.372304e+001
2.125383e+003,3.278123e+001
2.127311e+003,3.247123e+001
2.129240e+003,3.211986e+001
2.131168e+003,3.198069e+001
2.133097e+003,3.205503e+001
2.135025e+003,3.261437e+001
2.136954e+003,3.530580e+001
2.138882e+003,3.907702e+001
2.140811e+003,3.756406e+001
2.142739e+003,3.070045e+001
2.144667e+003,2.772172e+001
2.146596e+003,3.025801e+001
2.148524e+003,3.273334e+001
2.150453e+003,3.407889e+001
2.152381e+003,3.523636e+001
2.154310e+003,3.625705e+001
2.156238e+003,3.743778e+001
2.158167e+003,3.886790e+001
2.160095e+003,4.058386e+001
2.162024e+003,4.392091e+001
2.163952e+003,4.683989e+001
2.165881e+003,4.455785e+001
2.167809e+003,3.837782e+001
2.169738e+003,3.616759e+001
2.171666e+003,3.798991e+001
2.173594e+003,3.926396e+001
2.175523e+003,3.963403e+001
2.177451e+003,4.037773e+001
2.179380e+003,4.300927e+001
2.181308e+003,4.228230e+001
2.183237e+003,3.207113e+001
2.185165e+003,2.503702e+001
2.187094e+003,2.956849e+001
2.189022e+003,3.585495e+001
2.190951e+003,3.648610e+001
2.192879e+003,3.510517e+001
2.194808e+003,3.677696e+001
2.196736e+003,4.007072e+001
2.198665e+003,4.124913e+001
2.200593e+003,4.029873e+001
2.202521e+003,3.670486e+001
2.204450e+003,2.993674e+001
2.206378e+003,2.776856e+001
2.208307e+003,3.207902e+001
2.210235e+003,3.520469e+001
2.212164e+003,3.555241e+001
2.214092e+003,3.482014e+001
2.216021e+003,3.284528e+001
2.217949e+003,3.090340e+001
2.219878e+003,2.899846e+001
2.221806e+003,2.797530e+001
2.223735e+003,2.813987e+001
2.225663e+003,2.983920e+001
2.227592e+003,3.466284e+001
2.229520e+003,4.106662e+001
2.231448e+003,4.518707e+001
2.233377e+003,4.701897e+001
2.235305e+003,4.554711e+001
2.237234e+003,4.069202e+001
2.239162e+003,3.803342e+001
2.241091e+003,3.868736e+001
2.243019e+003,3.767850e+001
2.244948e+003,3.202757e+001
2.246876e+003,2.945737e+001
2.248805e+003,3.434782e+001
2.250733e+003,3.935990e+001
2.252662e+003,4.186505e+001
2.254590e+003,4.341999e+001
2.256519e+003,4.515194e+001
2.258447e+003,4.627115e+001
2.260375e+003,4.632309e+001
2.262304e+003,4.506976e+001
2.264232e+003,4.114221e+001
2.266161e+003,3.574122e+001
2.268089e+003,3.221468e+001
2.270018e+003,3.062846e+001
2.271946e+003,3.157677e+001
2.273875e+003,3.546137e+001
2.275803e+003,3.816099e+001
2.277732e+003,3.896078e+001
2.279660e+003,3.955264e+001
2.281589e+003,3.968183e+001
2.283517e+003,4.026141e+001
2.285446e+003,4.328798e+001
2.287374e+003,4.414714e+001
2.289302e+003,3.786647e+001
2.291231e+003,3.338607e+001
2.293159e+003,3.802183e+001
2.295088e+003,4.390121e+001
2.297016e+003,4.360754e+001
2.298945e+003,4.099273e+001
2.300873e+003,4.138024e+001
2.302802e+003,4.353357e+001
2.304730e+003,4.439159e+001
2.306659e+003,4.411184e+001
2.308587e+003,4.353266e+001
2.310516e+003,4.220567e+001
2.312444e+003,4.536317e+001
2.314373e+003,5.472771e+001
2.316301e+003,5.767026e+001
2.318229e+003,5.108962e+001
2.320158e+003,4.702149e+001
2.322086e+003,4.881373e+001
2.324015e+003,5.066397e+001
2.325943e+003,5.080385e+001
2.327872e+003,5.060177e+001
2.329800e+003,5.081359e+001
2.331729e+003,5.049810e+001
2.333657e+003,4.866065e+001
2.335586e+003,4.649702e+001
2.337514e+003,4.361562e+001
2.339443e+003,4.215698e+001
2.341371e+003,4.701430e+001
2.343300e+003,5.407751e+001
2.345228e+003,5.495935e+001
2.347156e+003,5.137622e+001
2.349085e+003,4.832228e+001
2.351013e+003,4.592684e+001
2.352942e+003,4.464591e+001
2.354870e+003,4.443364e+001
2.356799e+003,4.583537e+001
2.358727e+003,5.021824e+001
2.360656e+003,5.220571e+001
2.362584e+003,5.079742e+001
2.364513e+003,4.937023e+001
2.366441e+003,4.798500e+001
2.368370e+003,4.778471e+001
2.370298e+003,4.961182e+001
2.372227e+003,5.166863e+001
2.374155e+003,5.389448e+001
2.376083e+003,5.524854e+001
2.378012e+003,5.503254e+001
2.379940e+003,5.397242e+001
2.381869e+003,5.206923e+001
2.383797e+003,5.012103e+001
2.385726e+003,4.875290e+001
2.387654e+003,4.799467e+001
2.389583e+003,4.802520e+001
2.391511e+003,4.863940e+001
2.393440e+003,4.967868e+001
2.395368e+003,5.091199e+001
2.397297e+003,5.133305e+001
2.399225e+003,5.104813e+001
2.401154e+003,5.164152e+001
2.403082e+003,5.320971e+001
2.405010e+003,5.503695e+001
2.406939e+003,5.753352e+001
2.408867e+003,5.785300e+001
2.410796e+003,5.517244e+001
2.412724e+003,5.383710e+001
2.414653e+003,5.465160e+001
2.416581e+003,5.634476e+001
2.418510e+003,5.974164e+001
2.420438e+003,6.172533e+001
2.422367e+003,6.093830e+001
2.424295e+003,5.927665e+001
2.426224e+003,5.518232e+001
2.428152e+003,5.336786e+001
2.430081e+003,5.848450e+001
2.432009e+003,6.344267e+001
2.433938e+003,6.429814e+001
2.435866e+003,6.330793e+001
2.437794e+003,6.083699e+001
2.439723e+003,5.884455e+001
2.441651e+003,6.048622e+001
2.443580e+003,6.323085e+001
2.445508e+003,6.283254e+001
2.447437e+003,6.068867e+001
2.449365e+003,6.008370e+001
2.451294e+003,6.049867e+001
2.453222e+003,5.958186e+001
2.455151e+003,5.790675e+001
2.457079e+003,5.894536e+001
2.459008e+003,6.231980e+001
2.460936e+003,6.205466e+001
2.462865e+003,5.738503e+001
2.464793e+003,5.382236e+001
2.466721e+003,5.100405e+001
2.468650e+003,5.064988e+001
2.470578e+003,5.352438e+001
2.472507e+003,5.577378e+001
2.474435e+003,5.712625e+001
2.476364e+003,5.717572e+001
2.478292e+003,5.503211e+001
2.480221e+003,5.399249e+001
2.482149e+003,5.538281e+001
2.484078e+003,5.722165e+001
2.486006e+003,5.984612e+001
2.487935e+003,6.168401e+001
2.489863e+003,6.282583e+001
2.491792e+003,6.215986e+001
2.493720e+003,5.710717e+001
2.495648e+003,5.343607e+001
2.497577e+003,5.626686e+001
2.499505e+003,5.901847e+001
2.501434e+003,5.509737e+001
2.503362e+003,5.189889e+001
2.505291e+003,5.847723e+001
2.507219e+003,6.590206e+001
2.509148e+003,6.442623e+001
2.511076e+003,5.904561e+001
2.513005e+003,5.337957e+001
2.514933e+003,4.969940e+001
2.516862e+003,5.340301e+001
2.518790e+003,6.003812e+001
2.520719e+003,6.024677e+001
2.522647e+003,5.712598e+001
2.524575e+003,5.976902e+001
2.526504e+003,6.631425e+001
2.528432e+003,6.900409e+001
2.530361e+003,6.844295e+001
2.532289e+003,6.808289e+001
2.534218e+003,6.778890e+001
2.536146e+003,6.571552e+001
2.538075e+003,6.193024e+001
2.540003e+003,6.276612e+001
2.541932e+003,6.947539e+001
2.543860e+003,6.940118e+001
2.545789e+003,6.086601e+001
2.547717e+003,5.697662e+001
2.549646e+003,5.851036e+001
2.551574e+003,6.025158e+001
2.553502e+003,6.147386e+001
2.555431e+003,6.487379e+001
2.557359e+003,7.266193e+001
2.559288e+003,7.721127e+001
2.561216e+003,7.523116e+001
2.563145e+003,7.489686e+001
2.565073e+003,7.669604e+001
2.567002e+003,8.019576e+001
2.568930e+003,8.619504e+001
2.570859e+003,9.131871e+001
2.572787e+003,9.588108e+001
2.574716e+003,9.694631e+001
2.576644e+003,8.974652e+001
2.578573e+003,8.532381e+001
2.580501e+003,9.096727e+001
2.582429e+003,9.243466e+001
2.584358e+003,8.301295e+001
2.586287e+003,7.470812e+001
2.588215e+003,7.331062e+001
2.590144e+003,7.199840e+001
2.592072e+003,6.666057e+001
2.594000e+003,6.208434e+001
2.595929e+003,5.943044e+001
2.597857e+003,5.976718e+001
2.599786e+003,6.574741e+001
2.601714e+003,7.215962e+001
2.603643e+003,7.740107e+001
2.605571e+003,8.042918e+001
2.607500e+003,7.922498e+001
2.609428e+003,7.716919e+001
2.611357e+003,7.573431e+001
2.613285e+003,7.574112e+001
2.615214e+003,7.956281e+001
2.617142e+003,8.323751e+001
2.619071e+003,8.286701e+001
2.620999e+003,8.123627e+001
2.622927e+003,8.134779e+001
2.624856e+003,8.074976e+001
2.626784e+003,7.583601e+001
2.628713e+003,7.000574e+001
2.630641e+003,6.666943e+001
2.632570e+003,6.503659e+001
2.634498e+003,6.487500e+001
2.636427e+003,6.516816e+001
2.638355e+003,6.388405e+001
2.640284e+003,6.299061e+001
2.642212e+003,6.682523e+001
2.644141e+003,7.124799e+001
2.646069e+003,6.774833e+001
2.647998e+003,6.241352e+001
2.649926e+003,6.662964e+001
2.651854e+003,7.484426e+001
2.653783e+003,7.788144e+001
2.655711e+003,7.849497e+001
2.657640e+003,8.217820e+001
2.659568e+003,8.588997e+001
2.661497e+003,8.318559e+001
2.663425e+003,7.679678e+001
2.665354e+003,7.076507e+001
2.667282e+003,6.606660e+001
2.669211e+003,6.407000e+001
2.671139e+003,6.549404e+001
2.673068e+003,7.481742e+001
2.674996e+003,8.665471e+001
2.676925e+003,8.856769e+001
2.678853e+003,8.413116e+001
2.680781e+003,7.997200e+001
2.682710e+003,7.729346e+001
2.684638e+003,8.145777e+001
2.686567e+003,8.799649e+001
2.688495e+003,8.698188e+001
2.690424e+003,8.104713e+001
2.692352e+003,7.412383e+001
2.694281e+003,6.837309e+001
2.696209e+003,7.182710e+001
2.698138e+003,7.990835e+001
2.700066e+003,8.126886e+001
2.701995e+003,7.769348e+001
2.703923e+003,7.067799e+001
2.705852e+003,6.342047e+001
2.707780e+003,6.438681e+001
2.709708e+003,7.093990e+001
2.711637e+003,7.876408e+001
2.713565e+003,8.567064e+001
2.715494e+003,8.515870e+001
2.717422e+003,8.066792e+001
2.719351e+003,7.913302e+001
2.721279e+003,7.897676e+001
2.723208e+003,7.610406e+001
2.725136e+003,7.240936e+001
2.727065e+003,7.164699e+001
2.728993e+003,7.330726e+001
2.730922e+003,7.764347e+001
2.732850e+003,8.278992e+001
2.734779e+003,8.572195e+001
2.736707e+003,8.699721e+001
2.738635e+003,8.829650e+001
2.740564e+003,8.826552e+001
2.742492e+003,8.257244e+001
2.744421e+003,7.553096e+001
2.746349e+003,7.336740e+001
2.748278e+003,7.436272e+001
2.750206e+003,7.754314e+001
2.752135e+003,8.097478e+001
2.754063e+003,8.279547e+001
2.755992e+003,8.224646e+001
2.757920e+003,7.510358e+001
2.759849e+003,6.827598e+001
2.761777e+003,7.159338e+001
2.763706e+003,7.725833e+001
2.765634e+003,7.533646e+001
2.767563e+003,7.222959e+001
2.769491e+003,7.492454e+001
2.771419e+003,7.985986e+001
2.773348e+003,8.577121e+001
2.775276e+003,8.979015e+001
2.777205e+003,8.806783e+001
2.779133e+003,8.485272e+001
2.781062e+003,8.380852e+001
2.782990e+003,8.270509e+001
2.784919e+003,7.927323e+001
2.786847e+003,7.585568e+001
2.788776e+003,7.299504e+001
2.790704e+003,7.197279e+001
2.792633e+003,7.700610e+001
2.794561e+003,7.931931e+001
2.796490e+003,6.784800e+001
2.798418e+003,6.178973e+001
2.800346e+003,7.410978e+001
2.802275e+003,8.504190e+001
2.804203e+003,8.259289e+001
2.806132e+003,8.055114e+001
2.808060e+003,8.552558e+001
2.809989e+003,9.004597e+001
2.811917e+003,9.215833e+001
2.813846e+003,9.283248e+001
2.815774e+003,9.134135e+001
2.817703e+003,9.088350e+001
2.819631e+003,9.350649e+001
2.821560e+003,9.536693e+001
2.823488e+003,9.472359e+001
2.825417e+003,9.599545e+001
2.827345e+003,9.967718e+001
2.829273e+003,1.060451e+002
2.831202e+003,1.162637e+002
2.833130e+003,1.256105e+002
2.835059e+003,1.333659e+002
2.836987e+003,1.402360e+002
2.838916e+003,1.458777e+002
2.840844e+003,1.529896e+002
2.842773e+003,1.619293e+002
2.844701e+003,1.697337e+002
2.846630e+003,1.756967e+002
2.848558e+003,1.846956e+002
2.850487e+003,1.971442e+002
2.852415e+003,2.046617e+002
2.854344e+003,2.070731e+002
2.856272e+003,2.003952e+002
2.858200e+003,1.870259e+002
2.860129e+003,1.903299e+002
2.862057e+003,2.055236e+002
2.863986e+003,2.052088e+002
2.865914e+003,1.927622e+002
2.867843e+003,1.760702e+002
2.869771e+003,1.579491e+002
2.871700e+003,1.429411e+002
2.873628e+003,1.320492e+002
2.875557e+003,1.280953e+002
2.877485e+003,1.286792e+002
2.879414e+003,1.310458e+002
2.881342e+003,1.348569e+002
2.883271e+003,1.391061e+002
2.885199e+003,1.454427e+002
2.887127e+003,1.581264e+002
2.889056e+003,1.703566e+002
2.890984e+003,1.727804e+002
2.892913e+003,1.782433e+002
2.894841e+003,1.963959e+002
2.896770e+003,2.174523e+002
2.898698e+003,2.340945e+002
2.900627e+003,2.556747e+002
2.902555e+003,2.878104e+002
2.904484e+003,3.200776e+002
2.906412e+003,3.425173e+002
2.908341e+003,3.812612e+002
2.910269e+003,4.385161e+002
2.912198e+003,5.262979e+002
2.914126e+003,6.535038e+002
2.916054e+003,7.859099e+002
2.917983e+003,9.257853e+002
2.919911e+003,1.029307e+003
2.921840e+003,1.099911e+003
2.923768e+003,1.075468e+003
2.925697e+003,9.444691e+002
2.927625e+003,8.287612e+002
2.929554e+003,7.333882e+002
2.931482e+003,6.964729e+002
2.933411e+003,7.096963e+002
2.935339e+003,7.102515e+002
2.937268e+003,6.989033e+002
2.939196e+003,6.704172e+002
2.941125e+003,6.382046e+002
2.943053e+003,6.419388e+002
2.944981e+003,6.573516e+002
2.946910e+003,6.529547e+002
2.948838e+003,6.280587e+002
2.950767e+003,5.542859e+002
2.952695e+003,4.931024e+002
2.954624e+003,4.932602e+002
2.956552e+003,5.313288e+002
2.958481e+003,6.194153e+002
2.960409e+003,6.973068e+002
2.962338e+003,7.549125e+002
2.964266e+003,7.522446e+002
2.966195e+003,6.468848e+002
2.968123e+003,5.443339e+002
2.970052e+003,4.625949e+002
2.971980e+003,4.246817e+002
2.973908e+003,4.454765e+002
2.975837e+003,4.640540e+002
2.977765e+003,4.756139e+002
2.979694e+003,4.655111e+002
2.981622e+003,4.287297e+002
2.983551e+003,3.807069e+002
2.985479e+003,3.212846e+002
2.987408e+003,2.835155e+002
2.989336e+003,2.652900e+002
2.991265e+003,2.510953e+002
2.993193e+003,2.425342e+002
2.995122e+003,2.480401e+002
2.997050e+003,2.634668e+002
2.998979e+003,2.875331e+002
3.000907e+003,3.082501e+002
3.002835e+003,3.100661e+002
3.004764e+003,3.014757e+002
3.006692e+003,2.806335e+002
3.008621e+003,2.670336e+002
3.010549e+003,2.752487e+002
3.012478e+003,2.901356e+002
3.014406e+003,3.033683e+002
3.016335e+003,3.229527e+002
3.018263e+003,3.571232e+002
3.020192e+003,3.864528e+002
3.022120e+003,4.038836e+002
3.024049e+003,4.370849e+002
3.025977e+003,4.975123e+002
3.027906e+003,5.459469e+002
3.029834e+003,5.781859e+002
3.031762e+003,6.218742e+002
3.033691e+003,6.741236e+002
3.035619e+003,7.034069e+002
3.037548e+003,7.123500e+002
3.039476e+003,7.036342e+002
3.041405e+003,6.929142e+002
3.043333e+003,6.829765e+002
3.045262e+003,7.355356e+002
3.047190e+003,8.818525e+002
3.049119e+003,1.190161e+003
3.051047e+003,1.900647e+003
3.052976e+003,2.555319e+003
3.054904e+003,2.895978e+003
3.056833e+003,3.045917e+003
3.058761e+003,2.967096e+003
3.060689e+003,2.889044e+003
3.062618e+003,2.954097e+003
3.064546e+003,2.821112e+003
3.066475e+003,2.426997e+003
3.068403e+003,1.976452e+003
3.070332e+003,1.463627e+003
3.072260e+003,1.067924e+003
3.074189e+003,7.888481e+002
3.076117e+003,6.058436e+002
3.078046e+003,5.037308e+002
3.079974e+003,4.242025e+002
3.081903e+003,3.646608e+002
3.083831e+003,3.275120e+002
3.085760e+003,3.025873e+002
3.087688e+003,2.782946e+002
3.089616e+003,2.563646e+002
3.091545e+003,2.365395e+002
3.093473e+003,2.220679e+002
3.095402e+003,2.167225e+002
3.097330e+003,2.144956e+002
3.099259e+003,2.169606e+002
3.101187e+003,2.129457e+002
3.103116e+003,1.933059e+002
3.105044e+003,1.806395e+002
3.106973e+003,1.762660e+002
3.108901e+003,1.712354e+002
3.110830e+003,1.651195e+002
3.112758e+003,1.603254e+002
3.114687e+003,1.561532e+002
3.116615e+003,1.464200e+002
3.118543e+003,1.363413e+002
3.120472e+003,1.392537e+002
3.122400e+003,1.449413e+002
3.124329e+003,1.424717e+002
3.126257e+003,1.357080e+002
3.128186e+003,1.231056e+002
3.130114e+003,1.155368e+002
3.132043e+003,1.231560e+002
3.133971e+003,1.273428e+002
3.135900e+003,1.200444e+002
3.137828e+003,1.189315e+002
3.139757e+003,1.267917e+002
3.141685e+003,1.284465e+002
3.143614e+003,1.220290e+002
3.145542e+003,1.132635e+002
3.147470e+003,1.037718e+002
3.149399e+003,1.066512e+002
3.151327e+003,1.157619e+002
3.153256e+003,1.172338e+002
3.155184e+003,1.185217e+002
3.157113e+003,1.289465e+002
3.159041e+003,1.438669e+002
3.160970e+003,1.683958e+002
3.162898e+003,1.818945e+002
3.164827e+003,1.691940e+002
3.166755e+003,1.545275e+002
3.168684e+003,1.423683e+002
3.170612e+003,1.266753e+002
3.172541e+003,1.052351e+002
3.174469e+003,9.226098e+001
3.176397e+003,8.780961e+001
3.178326e+003,8.150948e+001
3.180254e+003,7.564532e+001
3.182183e+003,7.853619e+001
3.184111e+003,8.459722e+001
3.186040e+003,8.383140e+001
3.187968e+003,8.314282e+001
3.189897e+003,9.029819e+001
3.191825e+003,9.605419e+001
3.193754e+003,9.355506e+001
3.195682e+003,9.249124e+001
3.197611e+003,9.535342e+001
3.199539e+003,9.816425e+001
3.201468e+003,1.004030e+002
3.203396e+003,1.028378e+002
3.205324e+003,1.054628e+002
3.207253e+003,9.987051e+001
3.209181e+003,8.793878e+001
3.211110e+003,7.149894e+001
3.213038e+003,5.714730e+001
3.214967e+003,5.931403e+001
3.216895e+003,6.284779e+001
3.218824e+003,5.353175e+001
3.220752e+003,4.572409e+001
3.222681e+003,4.879659e+001
3.224609e+003,5.024947e+001
3.226538e+003,4.724091e+001
3.228466e+003,4.563525e+001
3.230395e+003,4.634951e+001
3.232323e+003,4.565886e+001
3.234251e+003,4.384945e+001
3.236180e+003,4.570724e+001
3.238108e+003,4.873429e+001
3.240037e+003,4.707822e+001
3.241965e+003,4.441710e+001
3.243894e+003,4.664664e+001
3.245822e+003,4.698439e+001
3.247751e+003,3.901075e+001
3.249679e+003,3.398077e+001
3.251608e+003,4.018849e+001
3.253536e+003,3.953894e+001
3.255465e+003,2.957303e+001
3.257393e+003,2.880504e+001
3.259322e+003,3.759563e+001
3.261250e+003,3.597771e+001
3.263178e+003,2.916763e+001
3.265107e+003,3.569339e+001
3.267035e+003,4.470845e+001
3.268964e+003,4.223641e+001
3.270892e+003,3.791766e+001
3.272821e+003,3.835441e+001
3.274749e+003,3.856686e+001
3.276678e+003,3.676941e+001
3.278606e+003,3.524101e+001
3.280535e+003,3.440981e+001
3.282463e+003,3.321785e+001
3.284392e+003,3.171449e+001
3.286320e+003,3.060630e+001
3.288249e+003,2.973695e+001
3.290177e+003,2.848418e+001
3.292105e+003,2.745415e+001
3.294034e+003,2.644136e+001
3.295962e+003,2.720176e+001
3.297891e+003,3.365694e+001
3.299819e+003,3.660880e+001
3.301748e+003,3.355682e+001
3.303676e+003,2.887617e+001
3.305605e+003,2.232012e+001
3.307533e+003,2.108376e+001
3.309462e+003,2.440057e+001
3.311390e+003,3.057074e+001
3.313319e+003,3.487406e+001
3.315247e+003,2.399761e+001
3.317176e+003,1.384620e+001
3.319104e+003,2.033931e+001
3.321032e+003,2.810469e+001
3.322961e+003,3.038715e+001
3.324889e+003,3.273292e+001
3.326818e+003,3.655299e+001
3.328746e+003,3.492484e+001
3.330675e+003,2.799388e+001
3.332603e+003,2.745459e+001
3.334532e+003,3.048666e+001
3.336460e+003,2.765415e+001
3.338389e+003,2.429828e+001
3.340317e+003,2.798437e+001
3.342246e+003,3.032804e+001
3.344174e+003,2.548341e+001
3.346103e+003,2.135049e+001
3.348031e+003,1.978243e+001
3.349959e+003,1.822947e+001
3.351888e+003,1.626121e+001
3.353816e+003,1.919062e+001
3.355745e+003,2.408165e+001
3.357673e+003,1.949640e+001
3.359602e+003,1.426601e+001
3.361530e+003,2.455655e+001
3.363459e+003,3.277296e+001
3.365387e+003,2.653452e+001
3.367316e+003,2.036691e+001
3.369244e+003,1.748526e+001
3.371173e+003,1.718299e+001
3.373101e+003,1.921718e+001
3.375030e+003,1.673545e+001
3.376958e+003,1.232326e+001
3.378886e+003,1.810919e+001
3.380815e+003,2.518386e+001
3.382743e+003,2.147933e+001
3.384672e+003,1.751475e+001
3.386600e+003,2.132306e+001
3.388529e+003,2.229955e+001
3.390457e+003,1.729581e+001
3.392386e+003,1.642842e+001
3.394314e+003,2.052949e+001
3.396243e+003,1.839649e+001
3.398171e+003,1.341526e+001
3.400100e+003,1.384523e+001
3.402028e+003,1.654740e+001
3.403957e+003,1.865142e+001
3.405885e+003,2.089691e+001
3.407813e+003,2.439824e+001
3.409742e+003,2.602750e+001
3.411670e+003,2.521078e+001
3.413599e+003,2.254851e+001
3.415527e+003,1.876954e+001
3.417456e+003,1.786716e+001
3.419384e+003,1.916965e+001
3.421313e+003,2.487710e+001
3.423241e+003,2.693529e+001
3.425170e+003,1.314838e+001
3.427098e+003,6.651002e+000
3.429027e+003,1.703606e+001
3.430955e+003,2.217067e+001
3.432884e+003,1.942503e+001
3.434812e+003,2.060313e+001
3.436740e+003,2.375319e+001
3.438669e+003,1.916984e+001
3.440597e+003,1.385244e+001
3.442526e+003,1.671955e+001
3.444454e+003,1.932809e+001
3.446383e+003,1.709070e+001
3.448311e+003,1.686638e+001
3.450240e+003,2.111393e+001
3.452168e+003,2.277010e+001
3.454097e+003,2.188602e+001
3.456025e+003,1.795186e+001
3.457954e+003,1.385149e+001
3.459882e+003,1.421595e+001
3.461811e+003,1.604723e+001
3.463739e+003,1.811048e+001
3.465667e+003,1.953647e+001
3.467596e+003,2.085985e+001
3.469524e+003,1.813090e+001
3.471453e+003,1.213282e+001
3.473381e+003,9.640241e+000
3.475310e+003,1.060780e+001
3.477238e+003,1.805681e+001
3.479167e+003,2.424362e+001
3.481095e+003,2.268152e+001
3.483024e+003,1.968835e+001
3.484952e+003,1.649338e+001
3.486881e+003,1.418585e+001
3.488809e+003,1.304816e+001
3.490738e+003,1.621783e+001
3.492666e+003,2.107690e+001
3.494594e+003,2.013477e+001
3.496523e+003,1.885662e+001
3.498451e+003,2.465195e+001
3.500380e+003,2.481169e+001
3.502308e+003,1.392618e+001
3.504237e+003,9.836701e+000
3.506165e+003,1.483924e+001
3.508094e+003,1.843872e+001
3.510022e+003,2.082535e+001
3.511951e+003,2.360794e+001
3.513879e+003,2.393376e+001
3.515808e+003,1.708853e+001
3.517736e+003,1.092320e+001
3.519665e+003,6.970004e+000
3.521593e+003,7.058311e+000
3.523521e+003,1.117325e+001
3.525450e+003,1.723001e+001
3.527378e+003,2.224086e+001
3.529307e+003,1.883572e+001
3.531235e+003,1.451024e+001
3.533164e+003,1.544531e+001
3.535092e+003,1.582262e+001
3.537021e+003,1.310585e+001
3.538949e+003,1.311085e+001
3.540878e+003,1.565790e+001
3.542806e+003,1.889452e+001
3.544735e+003,2.076824e+001
3.546663e+003,1.411328e+001
3.548592e+003,1.105017e+001
3.550520e+003,2.218074e+001
3.552448e+003,2.706911e+001
3.554377e+003,1.933168e+001
3.556305e+003,1.586103e+001
3.558234e+003,1.587581e+001
3.560162e+003,1.318393e+001
3.562091e+003,1.071161e+001
3.564019e+003,1.289896e+001
3.565948e+003,1.563531e+001
3.567876e+003,1.685622e+001
3.569805e+003,1.914151e+001
3.571733e+003,2.263398e+001
3.573662e+003,2.278853e+001
3.575590e+003,2.066990e+001
3.577519e+003,1.934822e+001
3.579447e+003,1.724537e+001
3.581376e+003,9.812039e+000
3.583304e+003,8.708708e+000
3.585233e+003,1.943626e+001
3.587161e+003,2.289429e+001
3.589090e+003,1.880518e+001
3.591018e+003,1.821764e+001
3.592947e+003,1.854720e+001
3.594875e+003,1.505251e+001
3.596803e+003,1.198896e+001
3.598732e+003,1.153851e+001
3.600660e+003,1.248674e+001
3.602589e+003,1.472520e+001
3.604517e+003,2.115489e+001
3.606446e+003,2.723773e+001
3.608374e+003,1.317228e+001
3.610303e+003,-5.777326e-001
3.612231e+003,6.113567e+000
3.614160e+003,1.179192e+001
3.616088e+003,1.112672e+001
3.618017e+003,1.280216e+001
3.619945e+003,1.646723e+001
3.621874e+003,1.236687e+001
3.623802e+003,7.657429e+000
3.625730e+003,1.325182e+001
3.627659e+003,1.747741e+001
3.629587e+003,1.416942e+001
3.631516e+003,1.278992e+001
3.633444e+003,1.458299e+001
3.635373e+003,1.933280e+001
3.637301e+003,2.375028e+001
3.639230e+003,1.919967e+001
3.641158e+003,1.463944e+001
3.643087e+003,1.725441e+001
3.645015e+003,1.847943e+001
3.646944e+003,1.707282e+001
3.648872e+003,1.565826e+001
3.650801e+003,1.451934e+001
3.652729e+003,1.454877e+001
3.654657e+003,1.473022e+001
3.656586e+003,1.313086e+001
3.658514e+003,1.428705e+001
3.660443e+003,1.969661e+001
3.662371e+003,2.071086e+001
3.664300e+003,1.846419e+001
3.666228e+003,2.240370e+001
3.668157e+003,2.610658e+001
3.670085e+003,2.241806e+001
3.672014e+003,1.678523e+001
3.673942e+003,9.836812e+000
3.675871e+003,9.968497e+000
3.677799e+003,1.627573e+001
3.679728e+003,1.736378e+001
3.681656e+003,1.583932e+001
3.683584e+003,1.287528e+001
3.685513e+003,1.299440e+001
3.687441e+003,1.844213e+001
3.689370e+003,2.315873e+001
3.691298e+003,2.583237e+001
3.693227e+003,1.467645e+001
3.695155e+003,2.972117e+000
3.697084e+003,1.089374e+001
3.699012e+003,1.969002e+001
3.700941e+003,2.241472e+001
3.702869e+003,2.004236e+001
3.704798e+003,1.356644e+001
3.706726e+003,1.778218e+001
3.708655e+003,2.480504e+001
3.710583e+003,2.404965e+001
3.712511e+003,2.004210e+001
3.714440e+003,1.243006e+001
3.716368e+003,1.396557e+001
3.718297e+003,2.468891e+001
3.720225e+003,2.156037e+001
3.722154e+003,1.471733e+001
3.724082e+003,1.979245e+001
3.726011e+003,2.464328e+001
3.727939e+003,2.520964e+001
3.729868e+003,1.812867e+001
3.731796e+003,5.063461e+000
3.733725e+003,8.030213e+000
3.735653e+003,1.736013e+001
3.737582e+003,2.189641e+001
3.739510e+003,2.374438e+001
3.741438e+003,2.321338e+001
3.743367e+003,2.213000e+001
3.745295e+003,2.099523e+001
3.747224e+003,2.363930e+001
3.749152e+003,2.531200e+001
3.751081e+003,1.892941e+001
3.753009e+003,1.386002e+001
3.754938e+003,1.314715e+001
3.756866e+003,1.366363e+001
3.758795e+003,1.476505e+001
3.760723e+003,1.361845e+001
3.762652e+003,1.330851e+001
3.764580e+003,1.726600e+001
3.766509e+003,2.156937e+001
3.768437e+003,2.602670e+001
3.770365e+003,2.156458e+001
3.772294e+003,1.222415e+001
3.774222e+003,9.598426e+000
3.776151e+003,1.219669e+001
3.778079e+003,2.261494e+001
3.780008e+003,2.642084e+001
3.781936e+003,2.149797e+001
3.783865e+003,2.148439e+001
3.785793e+003,2.372634e+001
3.787722e+003,2.164467e+001
3.789650e+003,2.012690e+001
3.791579e+003,2.408496e+001
3.793507e+003,1.894842e+001
3.795436e+003,5.234879e+000
3.797364e+003,4.900648e+000
3.799292e+003,1.096716e+001
3.801221e+003,1.717013e+001
3.803149e+003,2.048853e+001
3.805078e+003,1.875616e+001
3.807006e+003,2.017074e+001
3.808935e+003,2.292117e+001
3.810863e+003,1.428024e+001
3.812792e+003,7.496317e+000
3.814720e+003,1.742472e+001
3.816649e+003,2.453261e+001
3.818577e+003,2.406003e+001
3.820506e+003,2.428809e+001
3.822434e+003,2.391827e+001
3.824363e+003,1.816541e+001
3.826291e+003,1.547240e+001
3.828219e+003,2.226721e+001
3.830148e+003,2.105022e+001
3.832076e+003,1.097603e+001
3.834005e+003,7.048269e+000
3.835933e+003,6.905849e+000
3.837862e+003,8.803130e+000
3.839790e+003,1.093970e+001
3.841719e+003,1.285930e+001
3.843647e+003,1.523323e+001
3.845576e+003,1.733040e+001
3.847504e+003,1.600989e+001
3.849433e+003,1.436562e+001
3.851361e+003,1.412655e+001
3.853290e+003,1.570746e+001
3.855218e+003,1.837469e+001
3.857146e+003,1.286097e+001
3.859075e+003,5.626298e+000
3.861003e+003,5.461843e+000
3.862932e+003,7.315148e+000
3.864860e+003,9.913033e+000
3.866789e+003,1.264812e+001
3.868717e+003,1.502053e+001
3.870646e+003,1.525859e+001
3.872574e+003,1.526930e+001
3.874503e+003,1.592011e+001
3.876431e+003,1.822331e+001
3.878360e+003,2.197799e+001
3.880288e+003,2.225819e+001
3.882217e+003,2.044131e+001
3.884145e+003,1.593060e+001
3.886073e+003,1.484730e+001
3.888002e+003,1.968904e+001
3.889930e+003,2.268824e+001
3.891859e+003,2.439321e+001
3.893787e+003,2.795824e+001
3.895716e+003,2.898260e+001
3.897644e+003,2.406314e+001
3.899573e+003,2.203695e+001
3.901501e+003,2.304356e+001
3.903430e+003,1.861264e+001
3.905358e+003,1.424517e+001
3.907287e+003,1.656997e+001
3.909215e+003,1.714575e+001
3.911144e+003,1.468029e+001
3.913072e+003,1.706365e+001
3.915000e+003,2.144746e+001
3.916929e+003,2.282660e+001
3.918857e+003,2.324280e+001
3.920786e+003,2.383211e+001
3.922714e+003,2.097481e+001
3.924643e+003,1.635463e+001
3.926571e+003,1.570742e+001
3.928500e+003,1.631187e+001
3.930428e+003,1.701113e+001
3.932357e+003,1.582269e+001
3.934285e+003,1.325352e+001
3.936214e+003,1.608772e+001
3.938142e+003,1.944720e+001
3.940071e+003,1.732345e+001
3.941999e+003,1.716912e+001
3.943927e+003,2.084845e+001
3.945856e+003,2.067195e+001
3.947784e+003,1.951708e+001
3.949713e+003,2.388176e+001
3.951641e+003,2.302382e+001
3.953570e+003,1.323547e+001
3.955498e+003,1.553424e+001
3.957427e+003,2.373820e+001
3.959355e+003,1.764234e+001
3.961284e+003,1.225118e+001
3.963212e+003,1.625565e+001
3.965141e+003,1.937034e+001
3.967069e+003,2.072141e+001
3.968998e+003,1.764069e+001
3.970926e+003,1.609681e+001
3.972854e+003,2.168024e+001
3.974783e+003,2.415072e+001
3.976711e+003,2.337157e+001
3.978640e+003,2.813574e+001
3.980568e+003,3.125036e+001
3.982497e+003,2.421009e+001
3.984425e+003,1.818369e+001
3.986354e+003,1.528953e+001
3.988282e+003,1.693486e+001
3.990211e+003,1.930943e+001
3.992139e+003,1.688155e+001
3.994068e+003,1.488894e+001
3.995996e+003,1.452567e+001
3.997925e+003,1.845133e+001
3.999853e+003,2.384851e+001
4.001781e+003,2.762877e+001
4.003710e+003,2.720284e+001
4.005638e+003,2.148994e+001
4.007567e+003,1.595091e+001
4.009495e+003,1.282908e+001
4.011424e+003,1.946495e+001
4.013352e+003,2.477956e+001
4.015281e+003,2.285472e+001
4.017209e+003,2.216332e+001
4.019138e+003,2.144066e+001
4.021066e+003,1.560708e+001
4.022995e+003,1.243285e+001
4.024923e+003,1.583211e+001
4.026852e+003,1.789511e+001
4.028780e+003,1.839423e+001
4.030708e+003,1.867661e+001
4.032637e+003,1.849218e+001
4.034565e+003,1.698095e+001
4.036494e+003,2.021215e+001
4.038422e+003,2.591956e+001
4.040351e+003,2.165564e+001
4.042279e+003,1.619993e+001
4.044208e+003,1.433340e+001
4.046136e+003,1.602682e+001
4.048065e+003,1.995439e+001
4.049993e+003,2.198506e+001
4.051922e+003,2.094711e+001
4.053850e+003,1.530151e+001
4.055779e+003,1.119524e+001
4.057707e+003,9.706997e+000
4.059635e+003,1.572914e+001
4.061564e+003,2.056151e+001
4.063492e+003,1.795793e+001
4.065421e+003,1.485361e+001
4.067349e+003,1.258961e+001
4.069278e+003,1.679452e+001
4.071206e+003,1.841978e+001
4.073135e+003,4.530581e+000
4.075063e+003,7.653992e+000
4.076992e+003,2.343678e+001
4.078920e+003,1.914909e+001
4.080849e+003,1.171322e+001
4.082777e+003,1.208031e+001
4.084706e+003,1.311196e+001
4.086634e+003,1.381032e+001
4.088563e+003,1.257675e+001
4.090491e+003,1.161917e+001
4.092419e+003,1.235293e+001
4.094348e+003,1.167715e+001
4.096276e+003,1.080670e+001
4.098205e+003,1.839731e+001
4.100133e+003,2.414789e+001
4.102062e+003,2.161454e+001
4.103990e+003,1.936325e+001
4.105919e+003,1.761997e+001
4.107847e+003,1.389161e+001
4.109776e+003,1.230638e+001
4.111704e+003,1.682951e+001
4.113633e+003,1.889049e+001
4.115561e+003,1.878559e+001
4.117490e+003,1.665194e+001
4.119418e+003,1.637760e+001
4.121347e+003,2.027181e+001
4.123275e+003,1.335767e+001
4.125204e+003,3.267543e+000
4.127132e+003,6.632733e+000
4.129061e+003,1.223094e+001
4.130989e+003,1.676822e+001
4.132917e+003,1.622790e+001
4.134846e+003,1.349871e+001
4.136774e+003,1.299910e+001
4.138703e+003,1.200828e+001
4.140631e+003,9.790931e+000
4.142560e+003,1.075720e+001
4.144488e+003,1.261607e+001
4.146417e+003,1.305726e+001
4.148345e+003,1.200003e+001
4.150273e+003,9.597438e+000
4.152202e+003,1.103930e+001
4.154130e+003,1.189012e+001
4.156059e+003,6.215180e+000
4.157987e+003,3.859064e+000
4.159916e+003,5.256935e+000
4.161844e+003,5.125731e+000
4.163773e+003,8.206588e+000
4.165701e+003,2.215096e+001
4.167630e+003,2.200014e+001
4.169558e+003,1.318344e+001
4.171487e+003,1.614406e+001
4.173415e+003,1.916868e+001
4.175344e+003,1.736609e+001
4.177272e+003,1.296593e+001
4.179201e+003,8.569362e+000
4.181129e+003,8.741842e+000
4.183058e+003,1.048818e+001
4.184986e+003,1.286803e+001
4.186915e+003,1.322797e+001
4.188843e+003,1.354406e+001
4.190771e+003,1.720147e+001
4.192700e+003,1.811925e+001
4.194628e+003,1.567725e+001
4.196557e+003,1.421030e+001
4.198485e+003,1.425086e+001
4.200414e+003,1.701402e+001
4.202342e+003,1.698862e+001
4.204271e+003,1.482321e+001
4.206199e+003,1.578083e+001
4.208127e+003,1.708421e+001
4.210056e+003,1.799783e+001
4.211984e+003,1.371097e+001
4.213913e+003,8.032275e+000
4.215841e+003,8.695617e+000
4.217770e+003,1.298407e+001
4.219698e+003,2.116053e+001
4.221627e+003,1.804333e+001
4.223555e+003,1.211298e+001
4.225484e+003,1.198338e+001
4.227412e+003,1.670290e+001
4.229341e+003,2.424191e+001
4.231269e+003,2.018465e+001
4.233198e+003,1.422240e+001
4.235126e+003,1.154197e+001
4.237055e+003,1.561458e+001
4.238983e+003,2.154631e+001
4.240912e+003,1.566070e+001
4.242840e+003,1.021501e+001
4.244769e+003,9.580077e+000
4.246697e+003,7.416837e+000
4.248625e+003,7.354450e+000
4.250554e+003,1.298072e+001
