1.159199e+002,9.605745e+002
1.178484e+002,1.109282e+003
1.197769e+002,1.246918e+003
1.217053e+002,1.373064e+003
1.236338e+002,1.456715e+003
1.255623e+002,1.481245e+003
1.274907e+002,1.473317e+003
1.294192e+002,1.460508e+003
1.313477e+002,1.442086e+003
1.332761e+002,1.417153e+003
1.352046e+002,1.387643e+003
1.371331e+002,1.354039e+003
1.390615e+002,1.302708e+003
1.409900e+002,1.217954e+003
1.429185e+002,1.113117e+003
1.448469e+002,1.011243e+003
1.467754e+002,9.059026e+002
1.487039e+002,8.093317e+002
1.506323e+002,7.303141e+002
1.525608e+002,6.693349e+002
1.544893e+002,6.148082e+002
1.564177e+002,5.624812e+002
1.583462e+002,5.140964e+002
1.602747e+002,4.791617e+002
1.622031e+002,4.671369e+002
1.641316e+002,4.585933e+002
1.660601e+002,4.426237e+002
1.679885e+002,4.149028e+002
1.699170e+002,3.904308e+002
1.718455e+002,3.704046e+002
1.737739e+002,3.550909e+002
1.757024e+002,3.452049e+002
1.776309e+002,3.460404e+002
1.795593e+002,3.487830e+002
1.814878e+002,3.461345e+002
1.834163e+002,3.334479e+002
1.853447e+002,3.201789e+002
1.872732e+002,3.061661e+002
1.892017e+002,2.916265e+002
1.911301e+002,2.820215e+002
1.930586e+002,2.804199e+002
1.949871e+002,2.833832e+002
1.969155e+002,2.873633e+002
1.988440e+002,2.938734e+002
2.007725e+002,3.000056e+002
2.027009e+002,3.069637e+002
2.046294e+002,3.160141e+002
2.065579e+002,3.163033e+002
2.084864e+002,3.018969e+002
2.104148e+002,2.782664e+002
2.123433e+002,2.574922e+002
2.142718e+002,2.396160e+002
2.162002e+002,2.239606e+002
2.181287e+002,2.099137e+002
2.200572e+002,1.975431e+002
2.219856e+002,1.869533e+002
2.239141e+002,1.790103e+002
2.258426e+002,1.729697e+002
2.277710e+002,1.663670e+002
2.296995e+002,1.579138e+002
2.316280e+002,1.505845e+002
2.335564e+002,1.456632e+002
2.354849e+002,1.451998e+002
2.374134e+002,1.446861e+002
2.393418e+002,1.442156e+002
2.412703e+002,1.436728e+002
2.431988e+002,1.428392e+002
2.451272e+002,1.413658e+002
2.470557e+002,1.396983e+002
2.489842e+002,1.380323e+002
2.509126e+002,1.364107e+002
2.528411e+002,1.345871e+002
2.547696e+002,1.321807e+002
2.566980e+002,1.295188e+002
2.586265e+002,1.274867e+002
2.605550e+002,1.259811e+002
2.624834e+002,1.253101e+002
2.644119e+002,1.260967e+002
2.663404e+002,1.287334e+002
2.682688e+002,1.310893e+002
2.701973e+002,1.328437e+002
2.721258e+002,1.339879e+002
2.740542e+002,1.341113e+002
2.759827e+002,1.305332e+002
2.779112e+002,1.278555e+002
2.798396e+002,1.297971e+002
2.817681e+002,1.373896e+002
2.836966e+002,1.427545e+002
2.856250e+002,1.422805e+002
2.875535e+002,1.377189e+002
2.894820e+002,1.363979e+002
2.914104e+002,1.406760e+002
2.933389e+002,1.457973e+002
2.952674e+002,1.487936e+002
2.971958e+002,1.484515e+002
2.991243e+002,1.517786e+002
3.010528e+002,1.627791e+002
3.029813e+002,1.784183e+002
3.049097e+002,1.892281e+002
3.068382e+002,1.934259e+002
3.087667e+002,1.947115e+002
3.106951e+002,1.948672e+002
3.126236e+002,1.939826e+002
3.145521e+002,1.911893e+002
3.164805e+002,1.850236e+002
3.184090e+002,1.772006e+002
3.203375e+002,1.711430e+002
3.222659e+002,1.667638e+002
3.241944e+002,1.644767e+002
3.261229e+002,1.642162e+002
3.280513e+002,1.664971e+002
3.299798e+002,1.698892e+002
3.319083e+002,1.742607e+002
3.338367e+002,1.797183e+002
3.357652e+002,1.861884e+002
3.376937e+002,1.937240e+002
3.396221e+002,2.020904e+002
3.415506e+002,2.117693e+002
3.434791e+002,2.233557e+002
3.454075e+002,2.325364e+002
3.473360e+002,2.385482e+002
3.492645e+002,2.426264e+002
3.511929e+002,2.463324e+002
3.531214e+002,2.505681e+002
3.550499e+002,2.525436e+002
3.569783e+002,2.521607e+002
3.589068e+002,2.491456e+002
3.608353e+002,2.428637e+002
3.627637e+002,2.300614e+002
3.646922e+002,2.165944e+002
3.666207e+002,2.057751e+002
3.685491e+002,1.983710e+002
3.704776e+002,1.923840e+002
3.724061e+002,1.871822e+002
3.743345e+002,1.831896e+002
3.762630e+002,1.815591e+002
3.781915e+002,1.854261e+002
3.801199e+002,1.879286e+002
3.820484e+002,1.854175e+002
3.839769e+002,1.742708e+002
3.859053e+002,1.667275e+002
3.878338e+002,1.640347e+002
3.897623e+002,1.650388e+002
3.916907e+002,1.678882e+002
3.936192e+002,1.745044e+002
3.955477e+002,1.793971e+002
3.974761e+002,1.802613e+002
3.994046e+002,1.760740e+002
4.013331e+002,1.736400e+002
4.032615e+002,1.745658e+002
4.051900e+002,1.762624e+002
4.071185e+002,1.765939e+002
4.090469e+002,1.752260e+002
4.109754e+002,1.738872e+002
4.129039e+002,1.725501e+002
4.148323e+002,1.714436e+002
4.167608e+002,1.719257e+002
4.186893e+002,1.756051e+002
4.206177e+002,1.792193e+002
4.225462e+002,1.811726e+002
4.244747e+002,1.812689e+002
4.264032e+002,1.809524e+002
4.283316e+002,1.799927e+002
4.302601e+002,1.788645e+002
4.321886e+002,1.784014e+002
4.341170e+002,1.786170e+002
4.360455e+002,1.793934e+002
4.379740e+002,1.803987e+002
4.399024e+002,1.816626e+002
4.418309e+002,1.847309e+002
4.437594e+002,1.901330e+002
4.456878e+002,1.969543e+002
4.476163e+002,2.048649e+002
4.495448e+002,2.138414e+002
4.514732e+002,2.234293e+002
4.534017e+002,2.354970e+002
4.553302e+002,2.481653e+002
4.572586e+002,2.567757e+002
4.591871e+002,2.619552e+002
4.611156e+002,2.625193e+002
4.630440e+002,2.552351e+002
4.649725e+002,2.403831e+002
4.669010e+002,2.286334e+002
4.688294e+002,2.233312e+002
4.707579e+002,2.205628e+002
4.726864e+002,2.172778e+002
4.746148e+002,2.129188e+002
4.765433e+002,2.084817e+002
4.784718e+002,2.030755e+002
4.804002e+002,1.976119e+002
4.823287e+002,1.944695e+002
4.842572e+002,1.963207e+002
4.861856e+002,1.972593e+002
4.881141e+002,1.937683e+002
4.900426e+002,1.829962e+002
4.919710e+002,1.785096e+002
4.938995e+002,1.849223e+002
4.958280e+002,1.947967e+002
4.977564e+002,2.014630e+002
4.996849e+002,2.040603e+002
5.016134e+002,2.061480e+002
5.035418e+002,2.085362e+002
5.054703e+002,2.111208e+002
5.073988e+002,2.135451e+002
5.093272e+002,2.151883e+002
5.112557e+002,2.171996e+002
5.131842e+002,2.208045e+002
5.151127e+002,2.258793e+002
5.170411e+002,2.287606e+002
5.189696e+002,2.275266e+002
5.208981e+002,2.246910e+002
5.228265e+002,2.220850e+002
5.247550e+002,2.198971e+002
5.266835e+002,2.177083e+002
5.286119e+002,2.159991e+002
5.305404e+002,2.142147e+002
5.324689e+002,2.111705e+002
5.343973e+002,2.038426e+002
5.363258e+002,1.987651e+002
5.382543e+002,1.988757e+002
5.401827e+002,2.046911e+002
5.421112e+002,2.084967e+002
5.440397e+002,2.094913e+002
5.459681e+002,2.087645e+002
5.478966e+002,2.066168e+002
5.498251e+002,2.020290e+002
5.517535e+002,1.996338e+002
5.536820e+002,2.017571e+002
5.556105e+002,2.057949e+002
5.575389e+002,2.074704e+002
5.594674e+002,2.061433e+002
5.613959e+002,2.045895e+002
5.633243e+002,2.037284e+002
5.652528e+002,2.033923e+002
5.671813e+002,2.028360e+002
5.691097e+002,2.012175e+002
5.710382e+002,1.999587e+002
5.729667e+002,1.993084e+002
5.748951e+002,1.991762e+002
5.768236e+002,2.004698e+002
5.787521e+002,2.014760e+002
5.806805e+002,2.053539e+002
5.826090e+002,2.142276e+002
5.845375e+002,2.290089e+002
5.864659e+002,2.477674e+002
5.883944e+002,2.744484e+002
5.903229e+002,3.039832e+002
5.922513e+002,3.276828e+002
5.941798e+002,3.479861e+002
5.961083e+002,3.588169e+002
5.980367e+002,3.523387e+002
5.999652e+002,3.308875e+002
6.018937e+002,3.212266e+002
6.038221e+002,3.262550e+002
6.057506e+002,3.396370e+002
6.076791e+002,3.659599e+002
6.096075e+002,4.052908e+002
6.115360e+002,4.294717e+002
6.134645e+002,4.334036e+002
6.153929e+002,4.201572e+002
6.173214e+002,3.901649e+002
6.192499e+002,3.271742e+002
6.211783e+002,2.786945e+002
6.231068e+002,2.522287e+002
6.250353e+002,2.404019e+002
6.269637e+002,2.321140e+002
6.288922e+002,2.281956e+002
6.308207e+002,2.254380e+002
6.327491e+002,2.219020e+002
6.346776e+002,2.182674e+002
6.366061e+002,2.181218e+002
6.385345e+002,2.257019e+002
6.404630e+002,2.322686e+002
6.423915e+002,2.340754e+002
6.443199e+002,2.316320e+002
6.462484e+002,2.306302e+002
6.481769e+002,2.333251e+002
6.501053e+002,2.358699e+002
6.520338e+002,2.359698e+002
6.539623e+002,2.322309e+002
6.558907e+002,2.303662e+002
6.578192e+002,2.303460e+002
6.597477e+002,2.321482e+002
6.616761e+002,2.358899e+002
6.636046e+002,2.414465e+002
6.655331e+002,2.484287e+002
6.674615e+002,2.587064e+002
6.693900e+002,2.697568e+002
6.713185e+002,2.782750e+002
6.732469e+002,2.854801e+002
6.751754e+002,2.884313e+002
6.771039e+002,2.852325e+002
6.790323e+002,2.772878e+002
6.809608e+002,2.684775e+002
6.828893e+002,2.562107e+002
6.848177e+002,2.474894e+002
6.867462e+002,2.464226e+002
6.886747e+002,2.524897e+002
6.906031e+002,2.554079e+002
6.925316e+002,2.529755e+002
6.944601e+002,2.496025e+002
6.963885e+002,2.470893e+002
6.983170e+002,2.453853e+002
7.002455e+002,2.430957e+002
7.021740e+002,2.399758e+002
7.041024e+002,2.363040e+002
7.060309e+002,2.318452e+002
7.079594e+002,2.256076e+002
7.098878e+002,2.217478e+002
7.118163e+002,2.199198e+002
7.137448e+002,2.204045e+002
7.156732e+002,2.249487e+002
7.176017e+002,2.345386e+002
7.195302e+002,2.411740e+002
7.214586e+002,2.384753e+002
7.233871e+002,2.345856e+002
7.253156e+002,2.376483e+002
7.272440e+002,2.496672e+002
7.291725e+002,2.661736e+002
7.311010e+002,2.908854e+002
7.330294e+002,3.186823e+002
7.349579e+002,3.416378e+002
7.368864e+002,3.627243e+002
7.388149e+002,3.728354e+002
7.407433e+002,3.637588e+002
7.426718e+002,3.417194e+002
7.446003e+002,3.191391e+002
7.465287e+002,2.916595e+002
7.484572e+002,2.693546e+002
7.503857e+002,2.551293e+002
7.523141e+002,2.482667e+002
7.542426e+002,2.443080e+002
7.561711e+002,2.451411e+002
7.580995e+002,2.460166e+002
7.600280e+002,2.436142e+002
7.619565e+002,2.389883e+002
7.638849e+002,2.384032e+002
7.658134e+002,2.436806e+002
7.677419e+002,2.517070e+002
7.696703e+002,2.625709e+002
7.715988e+002,2.762654e+002
7.735273e+002,2.891578e+002
7.754557e+002,3.057708e+002
7.773842e+002,3.165017e+002
7.793127e+002,3.142978e+002
7.812411e+002,3.002895e+002
7.831696e+002,2.886986e+002
7.850981e+002,2.808693e+002
7.870266e+002,2.761220e+002
7.889550e+002,2.737866e+002
7.908835e+002,2.738117e+002
7.928120e+002,2.793312e+002
7.947404e+002,2.843967e+002
7.966689e+002,3.003061e+002
7.985974e+002,3.340610e+002
8.005258e+002,3.853211e+002
8.024543e+002,4.454569e+002
8.043828e+002,5.200786e+002
8.063112e+002,5.977358e+002
8.082397e+002,6.756052e+002
8.101682e+002,7.588495e+002
8.120966e+002,8.192424e+002
8.140251e+002,8.496275e+002
8.159536e+002,8.623217e+002
8.178820e+002,8.655808e+002
8.198105e+002,8.604897e+002
8.217390e+002,8.450337e+002
8.236674e+002,8.234691e+002
8.255959e+002,7.878114e+002
8.275244e+002,7.288783e+002
8.294528e+002,6.318454e+002
8.313813e+002,5.483223e+002
8.333098e+002,4.759056e+002
8.352382e+002,4.171583e+002
8.371667e+002,3.761286e+002
8.390952e+002,3.520873e+002
8.410236e+002,3.361856e+002
8.429521e+002,3.334626e+002
8.448806e+002,3.335323e+002
8.468090e+002,3.296072e+002
8.487375e+002,3.200877e+002
8.506660e+002,3.105282e+002
8.525944e+002,3.005565e+002
8.545229e+002,2.908935e+002
8.564514e+002,2.813676e+002
8.583798e+002,2.717151e+002
8.603083e+002,2.657570e+002
8.622368e+002,2.663779e+002
8.641652e+002,2.690833e+002
8.660937e+002,2.709752e+002
8.680222e+002,2.718542e+002
8.699506e+002,2.727369e+002
8.718791e+002,2.745901e+002
8.738076e+002,2.757607e+002
8.757360e+002,2.747627e+002
8.776645e+002,2.712747e+002
8.795930e+002,2.686940e+002
8.815214e+002,2.668200e+002
8.834499e+002,2.664836e+002
8.853784e+002,2.687182e+002
8.873068e+002,2.735784e+002
8.892353e+002,2.774805e+002
8.911638e+002,2.770133e+002
8.930922e+002,2.779662e+002
8.950207e+002,2.839496e+002
8.969492e+002,2.957520e+002
8.988776e+002,3.047553e+002
9.008061e+002,3.089684e+002
9.027346e+002,3.122570e+002
9.046630e+002,3.180603e+002
9.065915e+002,3.253072e+002
9.085200e+002,3.273074e+002
9.104484e+002,3.214174e+002
9.123769e+002,3.130028e+002
9.143054e+002,3.023357e+002
9.162338e+002,2.897935e+002
9.181623e+002,2.832239e+002
9.200908e+002,2.894069e+002
9.220192e+002,2.934408e+002
9.239477e+002,2.875918e+002
9.258762e+002,2.751987e+002
9.278046e+002,2.684019e+002
9.297331e+002,2.691966e+002
9.316616e+002,2.723313e+002
9.335900e+002,2.758505e+002
9.355185e+002,2.799984e+002
9.374470e+002,2.858437e+002
9.393754e+002,2.974368e+002
9.413039e+002,3.053682e+002
9.432324e+002,3.075403e+002
9.451608e+002,3.054615e+002
9.470893e+002,3.015271e+002
9.490178e+002,2.947866e+002
9.509462e+002,2.893219e+002
9.528747e+002,2.864610e+002
9.548032e+002,2.853204e+002
9.567316e+002,2.847212e+002
9.586601e+002,2.842923e+002
9.605886e+002,2.857029e+002
9.625170e+002,2.878645e+002
9.644455e+002,2.926577e+002
9.663740e+002,3.009898e+002
9.683024e+002,3.106494e+002
9.702309e+002,3.310341e+002
9.721594e+002,3.604426e+002
9.740878e+002,4.020218e+002
9.760163e+002,4.545811e+002
9.779448e+002,5.179053e+002
9.798733e+002,6.064772e+002
9.818018e+002,7.078096e+002
9.837302e+002,8.551807e+002
9.856587e+002,1.076429e+003
9.875872e+002,1.372158e+003
9.895156e+002,1.650584e+003
9.914441e+002,1.996735e+003
9.933726e+002,2.232385e+003
9.953010e+002,2.305399e+003
9.972295e+002,2.218037e+003
9.991580e+002,1.991329e+003
1.001086e+003,1.543659e+003
1.003015e+003,1.130592e+003
1.004943e+003,8.307477e+002
1.006872e+003,6.225065e+002
1.008800e+003,4.846550e+002
1.010729e+003,4.336906e+002
1.012657e+003,4.158908e+002
1.014586e+003,4.290543e+002
1.016514e+003,4.623908e+002
1.018443e+003,5.067534e+002
1.020371e+003,5.697156e+002
1.022300e+003,6.249986e+002
1.024228e+003,6.862382e+002
1.026156e+003,7.284122e+002
1.028085e+003,7.304161e+002
1.030013e+003,6.959234e+002
1.031942e+003,6.443492e+002
1.033870e+003,5.628051e+002
1.035799e+003,4.836054e+002
1.037727e+003,4.176750e+002
1.039656e+003,3.652804e+002
1.041584e+003,3.279112e+002
1.043513e+003,3.149253e+002
1.045441e+003,3.061986e+002
1.047370e+003,2.981155e+002
1.049298e+003,2.915679e+002
1.051227e+003,2.893419e+002
1.053155e+003,2.934626e+002
1.055083e+003,2.958786e+002
1.057012e+003,2.923668e+002
1.058940e+003,2.876180e+002
1.060869e+003,2.868090e+002
1.062797e+003,2.909164e+002
1.064726e+003,2.924684e+002
1.066654e+003,2.865967e+002
1.068583e+003,2.806946e+002
1.070511e+003,2.790775e+002
1.072440e+003,2.821738e+002
1.074368e+003,2.844901e+002
1.076297e+003,2.863673e+002
1.078225e+003,2.873670e+002
1.080154e+003,2.873242e+002
1.082082e+003,2.864797e+002
1.084010e+003,2.852053e+002
1.085939e+003,2.830358e+002
1.087867e+003,2.819566e+002
1.089796e+003,2.839018e+002
1.091724e+003,2.865508e+002
1.093653e+003,2.866778e+002
1.095581e+003,2.825484e+002
1.097510e+003,2.810140e+002
1.099438e+003,2.826341e+002
1.101367e+003,2.868826e+002
1.103295e+003,2.945100e+002
1.105224e+003,3.060058e+002
1.107152e+003,3.155307e+002
1.109081e+003,3.220202e+002
1.111009e+003,3.282159e+002
1.112938e+003,3.355228e+002
1.114866e+003,3.432583e+002
1.116794e+003,3.499552e+002
1.118723e+003,3.558826e+002
1.120651e+003,3.594241e+002
1.122580e+003,3.591703e+002
1.124508e+003,3.565143e+002
1.126437e+003,3.521523e+002
1.128365e+003,3.446038e+002
1.130294e+003,3.403550e+002
1.132222e+003,3.394483e+002
1.134151e+003,3.421034e+002
1.136079e+003,3.468517e+002
1.138008e+003,3.544846e+002
1.139936e+003,3.728906e+002
1.141865e+003,4.104147e+002
1.143793e+003,4.455894e+002
1.145721e+003,4.757723e+002
1.147650e+003,4.970435e+002
1.149578e+003,5.030738e+002
1.151507e+003,4.910409e+002
1.153435e+003,4.757799e+002
1.155364e+003,4.568447e+002
1.157292e+003,4.395181e+002
1.159221e+003,4.269911e+002
1.161149e+003,4.194518e+002
1.163078e+003,4.166862e+002
1.165006e+003,4.164549e+002
1.166935e+003,4.235114e+002
1.168863e+003,4.407621e+002
1.170792e+003,4.664381e+002
1.172720e+003,4.978111e+002
1.174648e+003,5.416646e+002
1.176577e+003,5.730070e+002
1.178505e+003,5.845482e+002
1.180434e+003,5.824912e+002
1.182362e+003,5.691086e+002
1.184291e+003,5.448739e+002
1.186219e+003,5.223036e+002
1.188148e+003,4.867547e+002
1.190076e+003,4.773361e+002
1.192005e+003,5.094523e+002
1.193933e+003,5.786859e+002
1.195862e+003,6.717032e+002
1.197790e+003,8.149533e+002
1.199719e+003,9.401907e+002
1.201647e+003,1.062277e+003
1.203575e+003,1.149404e+003
1.205504e+003,1.167468e+003
1.207432e+003,1.108054e+003
1.209361e+003,1.026561e+003
1.211289e+003,9.065012e+002
1.213218e+003,7.853473e+002
1.215146e+003,6.705029e+002
1.217075e+003,5.679958e+002
1.219003e+003,4.900864e+002
1.220932e+003,4.402071e+002
1.222860e+003,4.035417e+002
1.224789e+003,3.825312e+002
1.226717e+003,3.686021e+002
1.228646e+003,3.567951e+002
1.230574e+003,3.471577e+002
1.232502e+003,3.379185e+002
1.234431e+003,3.273053e+002
1.236359e+003,3.188640e+002
1.238288e+003,3.142258e+002
1.240216e+003,3.123049e+002
1.242145e+003,3.110571e+002
1.244073e+003,3.108825e+002
1.246002e+003,3.107028e+002
1.247930e+003,3.143065e+002
1.249859e+003,3.147318e+002
1.251787e+003,3.007439e+002
1.253716e+003,2.779886e+002
1.255644e+003,2.741560e+002
1.257573e+003,3.010696e+002
1.259501e+003,3.241292e+002
1.261429e+003,3.265388e+002
1.263358e+003,3.205311e+002
1.265286e+003,3.186606e+002
1.267215e+003,3.212122e+002
1.269143e+003,3.256745e+002
1.271072e+003,3.311722e+002
1.273000e+003,3.391554e+002
1.274929e+003,3.509937e+002
1.276857e+003,3.658605e+002
1.278786e+003,3.808953e+002
1.280714e+003,3.969319e+002
1.282643e+003,4.121987e+002
1.284571e+003,4.259326e+002
1.286500e+003,4.397656e+002
1.288428e+003,4.510184e+002
1.290356e+003,4.612711e+002
1.292285e+003,4.886085e+002
1.294213e+003,5.448054e+002
1.296142e+003,5.970060e+002
1.298070e+003,6.421657e+002
1.299999e+003,6.714171e+002
1.301927e+003,6.715417e+002
1.303856e+003,6.406403e+002
1.305784e+003,6.105186e+002
1.307713e+003,5.863100e+002
1.309641e+003,5.633141e+002
1.311570e+003,5.390614e+002
1.313498e+003,5.146560e+002
1.315427e+003,4.920797e+002
1.317355e+003,4.671047e+002
1.319283e+003,4.537771e+002
1.321212e+003,4.586335e+002
1.323140e+003,4.694554e+002
1.325069e+003,4.799508e+002
1.326997e+003,4.900774e+002
1.328926e+003,4.998957e+002
1.330854e+003,5.155789e+002
1.332783e+003,5.213902e+002
1.334711e+003,5.097315e+002
1.336640e+003,4.906939e+002
1.338568e+003,4.719326e+002
1.340497e+003,4.537004e+002
1.342425e+003,4.393868e+002
1.344354e+003,4.311478e+002
1.346282e+003,4.234255e+002
1.348210e+003,4.130284e+002
1.350139e+003,4.025610e+002
1.352068e+003,3.955896e+002
1.353996e+003,3.923777e+002
1.355924e+003,3.878724e+002
1.357853e+003,3.795184e+002
1.359781e+003,3.723350e+002
1.361710e+003,3.695793e+002
1.363638e+003,3.689215e+002
1.365567e+003,3.653329e+002
1.367495e+003,3.567727e+002
1.369424e+003,3.510909e+002
1.371352e+003,3.549654e+002
1.373281e+003,3.551908e+002
1.375209e+003,3.411587e+002
1.377138e+003,3.185902e+002
1.379066e+003,3.060328e+002
1.380995e+003,3.043521e+002
1.382923e+003,3.107730e+002
1.384851e+003,3.358905e+002
1.386780e+003,3.588402e+002
1.388708e+003,3.576551e+002
1.390637e+003,3.420905e+002
1.392565e+003,3.532389e+002
1.394494e+003,3.984746e+002
1.396422e+003,4.471703e+002
1.398351e+003,5.044007e+002
1.400279e+003,5.515789e+002
1.402208e+003,5.769130e+002
1.404136e+003,5.818389e+002
1.406065e+003,5.663492e+002
1.407993e+003,5.232964e+002
1.409922e+003,4.812493e+002
1.411850e+003,4.462115e+002
1.413778e+003,4.173450e+002
1.415707e+003,3.947475e+002
1.417635e+003,3.783058e+002
1.419564e+003,3.638936e+002
1.421492e+003,3.434114e+002
1.423421e+003,3.414637e+002
1.425349e+003,3.765725e+002
1.427278e+003,4.190206e+002
1.429206e+003,4.453908e+002
1.431135e+003,4.556554e+002
1.433063e+003,4.650309e+002
1.434992e+003,4.782254e+002
1.436920e+003,4.833506e+002
1.438849e+003,4.804522e+002
1.440777e+003,4.680117e+002
1.442705e+003,4.380472e+002
1.444634e+003,3.924397e+002
1.446562e+003,3.662554e+002
1.448491e+003,3.694317e+002
1.450419e+003,3.732783e+002
1.452348e+003,3.714011e+002
1.454276e+003,3.694147e+002
1.456205e+003,3.731949e+002
1.458133e+003,3.813764e+002
1.460062e+003,3.855348e+002
1.461990e+003,3.832085e+002
1.463919e+003,3.828733e+002
1.465847e+003,3.940680e+002
1.467776e+003,4.018158e+002
1.469704e+003,3.858162e+002
1.471632e+003,3.567538e+002
1.473561e+003,3.557317e+002
1.475489e+003,3.946543e+002
1.477418e+003,4.268992e+002
1.479346e+003,4.360287e+002
1.481275e+003,4.384785e+002
1.483203e+003,4.451209e+002
1.485132e+003,4.537021e+002
1.487060e+003,4.571443e+002
1.488989e+003,4.572592e+002
1.490917e+003,4.452619e+002
1.492846e+003,4.007411e+002
1.494774e+003,3.638540e+002
1.496703e+003,3.591836e+002
1.498631e+003,3.768380e+002
1.500559e+003,3.883151e+002
1.502488e+003,3.923041e+002
1.504416e+003,3.939676e+002
1.506345e+003,3.912603e+002
1.508273e+003,3.890079e+002
1.510202e+003,3.876083e+002
1.512130e+003,3.883694e+002
1.514059e+003,3.944734e+002
1.515987e+003,4.086610e+002
1.517916e+003,4.201577e+002
1.519844e+003,4.337018e+002
1.521773e+003,4.393146e+002
1.523701e+003,4.253001e+002
1.525630e+003,4.065317e+002
1.527558e+003,4.051461e+002
1.529486e+003,4.241021e+002
1.531415e+003,4.317022e+002
1.533343e+003,4.167504e+002
1.535272e+003,4.056040e+002
1.537200e+003,4.071776e+002
1.539129e+003,4.118372e+002
1.541057e+003,4.108864e+002
1.542986e+003,4.051080e+002
1.544914e+003,4.008155e+002
1.546843e+003,3.992091e+002
1.548771e+003,3.965502e+002
1.550700e+003,3.884198e+002
1.552628e+003,3.826197e+002
1.554557e+003,3.865088e+002
1.556485e+003,3.960423e+002
1.558413e+003,3.994059e+002
1.560342e+003,3.945515e+002
1.562270e+003,3.958251e+002
1.564199e+003,4.085081e+002
1.566127e+003,4.235286e+002
1.568056e+003,4.322321e+002
1.569984e+003,4.434026e+002
1.571913e+003,4.712155e+002
1.573841e+003,5.148841e+002
1.575770e+003,5.555699e+002
1.577698e+003,5.977800e+002
1.579627e+003,6.217651e+002
1.581555e+003,6.045084e+002
1.583484e+003,5.800266e+002
1.585412e+003,5.694854e+002
1.587340e+003,5.742551e+002
1.589269e+003,6.050098e+002
1.591197e+003,6.714525e+002
1.593126e+003,7.259048e+002
1.595054e+003,7.550870e+002
1.596983e+003,7.719883e+002
1.598911e+003,7.888488e+002
1.600840e+003,7.964960e+002
1.602768e+003,7.736893e+002
1.604697e+003,7.181552e+002
1.606625e+003,6.595569e+002
1.608554e+003,5.926397e+002
1.610482e+003,5.392211e+002
1.612411e+003,5.117904e+002
1.614339e+003,4.968378e+002
1.616267e+003,4.853644e+002
1.618196e+003,4.769668e+002
1.620124e+003,4.674909e+002
1.622053e+003,4.578421e+002
1.623981e+003,4.443344e+002
1.625910e+003,4.157627e+002
1.627838e+003,3.946620e+002
1.629767e+003,3.971504e+002
1.631695e+003,4.120740e+002
1.633624e+003,4.183640e+002
1.635552e+003,4.147978e+002
1.637481e+003,4.110929e+002
1.639409e+003,4.131571e+002
1.641338e+003,4.061911e+002
1.643266e+003,3.725460e+002
1.645194e+003,3.417878e+002
1.647123e+003,3.422958e+002
1.649051e+003,3.677762e+002
1.650980e+003,3.822423e+002
1.652908e+003,3.829609e+002
1.654837e+003,3.799845e+002
1.656765e+003,3.746800e+002
1.658694e+003,3.650800e+002
1.660622e+003,3.412599e+002
1.662551e+003,3.187681e+002
1.664479e+003,3.215860e+002
1.666408e+003,3.516483e+002
1.668336e+003,3.669083e+002
1.670265e+003,3.588719e+002
1.672193e+003,3.535150e+002
1.674121e+003,3.568650e+002
1.676050e+003,3.612238e+002
1.677978e+003,3.625125e+002
1.679907e+003,3.616624e+002
1.681835e+003,3.600304e+002
1.683764e+003,3.564312e+002
1.685692e+003,3.573091e+002
1.687621e+003,3.722199e+002
1.689549e+003,3.764516e+002
1.691478e+003,3.512393e+002
1.693406e+003,3.278360e+002
1.695335e+003,3.327911e+002
1.697263e+003,3.574083e+002
1.699192e+003,3.740885e+002
1.701120e+003,3.843228e+002
1.703048e+003,3.811982e+002
1.704977e+003,3.436266e+002
1.706905e+003,3.209276e+002
1.708834e+003,3.379276e+002
1.710762e+003,3.634545e+002
1.712691e+003,3.699919e+002
1.714619e+003,3.612246e+002
1.716548e+003,3.567976e+002
1.718476e+003,3.577577e+002
1.720405e+003,3.604693e+002
1.722333e+003,3.735205e+002
1.724262e+003,3.763513e+002
1.726190e+003,3.496565e+002
1.728119e+003,3.206251e+002
1.730047e+003,3.193809e+002
1.731975e+003,3.412758e+002
1.733904e+003,3.497022e+002
1.735832e+003,3.386743e+002
1.737761e+003,3.348008e+002
1.739689e+003,3.465105e+002
1.741618e+003,3.586323e+002
1.743546e+003,3.676034e+002
1.745475e+003,3.734701e+002
1.747403e+003,3.750042e+002
1.749332e+003,3.728467e+002
1.751260e+003,3.728859e+002
1.753189e+003,3.763261e+002
1.755117e+003,3.766039e+002
1.757046e+003,3.698179e+002
1.758974e+003,3.648751e+002
1.760902e+003,3.678982e+002
1.762831e+003,3.720058e+002
1.764759e+003,3.693573e+002
1.766688e+003,3.621621e+002
1.768616e+003,3.607776e+002
1.770545e+003,3.661577e+002
1.772473e+003,3.716224e+002
1.774402e+003,3.762715e+002
1.776330e+003,3.801506e+002
1.778259e+003,3.831896e+002
1.780187e+003,3.854103e+002
1.782116e+003,3.871619e+002
1.784044e+003,3.881848e+002
1.785973e+003,3.888275e+002
1.787901e+003,3.895990e+002
1.789829e+003,3.818492e+002
1.791758e+003,3.578798e+002
1.793686e+003,3.411618e+002
1.795615e+003,3.429104e+002
1.797543e+003,3.513349e+002
1.799472e+003,3.657010e+002
1.801400e+003,3.778069e+002
1.803329e+003,3.652996e+002
1.805257e+003,3.293201e+002
1.807186e+003,3.168775e+002
1.809114e+003,3.404586e+002
1.811043e+003,3.634756e+002
1.812971e+003,3.785214e+002
1.814900e+003,3.870011e+002
1.816828e+003,3.867872e+002
1.818756e+003,3.822336e+002
1.820685e+003,3.807044e+002
1.822613e+003,3.811171e+002
1.824542e+003,3.730829e+002
1.826470e+003,3.522030e+002
1.828399e+003,3.375109e+002
1.830327e+003,3.307923e+002
1.832256e+003,3.321198e+002
1.834184e+003,3.482743e+002
1.836113e+003,3.667460e+002
1.838041e+003,3.756386e+002
1.839970e+003,3.770919e+002
1.841898e+003,3.780914e+002
1.843827e+003,3.784279e+002
1.845755e+003,3.795591e+002
1.847684e+003,3.901076e+002
1.849612e+003,3.885316e+002
1.851541e+003,3.504814e+002
1.853469e+003,3.210237e+002
1.855397e+003,3.380620e+002
1.857326e+003,3.764880e+002
1.859254e+003,3.962655e+002
1.861183e+003,3.971309e+002
1.863111e+003,3.885570e+002
1.865040e+003,3.623943e+002
1.866968e+003,3.451725e+002
1.868897e+003,3.456820e+002
1.870825e+003,3.461937e+002
1.872754e+003,3.351895e+002
1.874682e+003,3.279959e+002
1.876611e+003,3.427614e+002
1.878539e+003,3.706541e+002
1.880468e+003,3.852077e+002
1.882396e+003,3.856352e+002
1.884324e+003,3.870119e+002
1.886253e+003,3.933638e+002
1.888181e+003,3.910051e+002
1.890110e+003,3.639713e+002
1.892038e+003,3.455504e+002
1.893967e+003,3.614405e+002
1.895895e+003,3.873145e+002
1.897824e+003,4.001295e+002
1.899752e+003,4.022199e+002
1.901681e+003,4.005381e+002
1.903609e+003,3.953945e+002
1.905538e+003,3.854705e+002
1.907466e+003,3.673347e+002
1.909395e+003,3.531628e+002
1.911323e+003,3.484417e+002
1.913251e+003,3.465872e+002
1.915180e+003,3.409798e+002
1.917108e+003,3.380754e+002
1.919037e+003,3.524476e+002
1.920965e+003,3.788641e+002
1.922894e+003,3.828067e+002
1.924822e+003,3.539688e+002
1.926751e+003,3.427087e+002
1.928679e+003,3.635557e+002
1.930608e+003,3.831731e+002
1.932536e+003,3.968289e+002
1.934465e+003,4.062526e+002
1.936393e+003,4.118027e+002
1.938322e+003,4.139003e+002
1.940250e+003,4.110095e+002
1.942178e+003,4.043319e+002
1.944107e+003,4.051583e+002
1.946035e+003,4.187974e+002
1.947964e+003,4.169683e+002
1.949892e+003,3.883676e+002
1.951821e+003,3.644099e+002
1.953749e+003,3.524781e+002
1.955678e+003,3.467199e+002
1.957606e+003,3.470947e+002
1.959535e+003,3.498356e+002
1.961463e+003,3.512849e+002
1.963392e+003,3.514598e+002
1.965320e+003,3.477204e+002
1.967249e+003,3.397988e+002
1.969177e+003,3.486059e+002
1.971105e+003,3.865206e+002
1.973034e+003,4.070398e+002
1.974962e+003,3.800963e+002
1.976891e+003,3.596071e+002
1.978819e+003,3.795210e+002
1.980748e+003,4.082961e+002
1.982676e+003,4.193042e+002
1.984605e+003,4.158606e+002
1.986533e+003,4.028206e+002
1.988462e+003,3.790535e+002
1.990390e+003,3.648537e+002
1.992319e+003,3.618878e+002
1.994247e+003,3.658069e+002
1.996176e+003,3.900428e+002
1.998104e+003,4.022473e+002
2.000032e+003,3.778065e+002
2.001961e+003,3.567458e+002
2.003889e+003,3.715052e+002
2.005818e+003,4.012115e+002
2.007746e+003,4.182737e+002
2.009675e+003,4.229166e+002
2.011603e+003,4.151186e+002
2.013532e+003,3.935565e+002
2.015460e+003,3.773723e+002
2.017389e+003,3.684480e+002
2.019317e+003,3.656678e+002
2.021246e+003,3.726967e+002
2.023174e+003,3.794906e+002
2.025103e+003,3.795857e+002
2.027031e+003,3.788970e+002
2.028959e+003,3.813908e+002
2.030888e+003,3.869751e+002
2.032816e+003,4.001285e+002
2.034745e+003,4.194015e+002
2.036673e+003,4.171096e+002
2.038602e+003,3.781124e+002
2.040530e+003,3.624086e+002
2.042459e+003,3.884865e+002
2.044387e+003,4.113668e+002
2.046316e+003,4.262497e+002
2.048244e+003,4.336668e+002
2.050173e+003,4.325735e+002
2.052101e+003,4.252204e+002
2.054030e+003,4.056977e+002
2.055958e+003,3.843349e+002
2.057886e+003,3.898489e+002
2.059815e+003,4.190645e+002
2.061743e+003,4.383022e+002
2.063672e+003,4.454160e+002
2.065600e+003,4.486288e+002
2.067529e+003,4.476766e+002
2.069457e+003,4.467422e+002
2.071386e+003,4.469293e+002
2.073314e+003,4.476623e+002
2.075243e+003,4.542478e+002
2.077171e+003,4.561131e+002
2.079100e+003,4.344311e+002
2.081028e+003,4.055349e+002
2.082957e+003,4.047847e+002
2.084885e+003,4.296264e+002
2.086813e+003,4.470227e+002
2.088742e+003,4.588295e+002
2.090670e+003,4.557528e+002
2.092599e+003,4.213362e+002
2.094527e+003,4.052783e+002
2.096456e+003,4.344169e+002
2.098384e+003,4.539240e+002
2.100313e+003,4.345483e+002
2.102241e+003,4.102160e+002
2.104170e+003,4.018575e+002
2.106098e+003,4.022613e+002
2.108027e+003,4.020502e+002
2.109955e+003,4.029064e+002
2.111884e+003,4.106154e+002
2.113812e+003,4.252231e+002
2.115740e+003,4.425397e+002
2.117669e+003,4.702076e+002
2.119597e+003,4.755105e+002
2.121526e+003,4.323184e+002
2.123454e+003,4.008661e+002
2.125383e+003,3.994520e+002
2.127311e+003,4.051360e+002
2.129240e+003,4.064044e+002
2.131168e+003,4.103087e+002
2.133097e+003,4.260841e+002
2.135025e+003,4.471846e+002
2.136954e+003,4.664510e+002
2.138882e+003,4.810827e+002
2.140811e+003,4.710827e+002
2.142739e+003,4.364298e+002
2.144667e+003,4.228141e+002
2.146596e+003,4.400316e+002
2.148524e+003,4.503873e+002
2.150453e+003,4.440757e+002
2.152381e+003,4.349358e+002
2.154310e+003,4.236258e+002
2.156238e+003,4.149256e+002
2.158167e+003,4.133993e+002
2.160095e+003,4.135089e+002
2.162024e+003,4.095330e+002
2.163952e+003,4.043490e+002
2.165881e+003,4.008190e+002
2.167809e+003,4.001628e+002
2.169738e+003,4.119022e+002
2.171666e+003,4.362684e+002
2.173594e+003,4.553598e+002
2.175523e+003,4.696617e+002
2.177451e+003,4.664056e+002
2.179380e+003,4.326256e+002
2.181308e+003,4.124973e+002
2.183237e+003,4.293510e+002
2.185165e+003,4.476006e+002
2.187094e+003,4.575298e+002
2.189022e+003,4.576576e+002
2.190951e+003,4.343613e+002
2.192879e+003,4.103395e+002
2.194808e+003,4.240584e+002
2.196736e+003,4.577712e+002
2.198665e+003,4.585866e+002
2.200593e+003,4.276153e+002
2.202521e+003,4.132106e+002
2.204450e+003,4.171701e+002
2.206378e+003,4.147334e+002
2.208307e+003,4.016692e+002
2.210235e+003,3.930891e+002
2.212164e+003,3.923620e+002
2.214092e+003,3.958609e+002
2.216021e+003,4.022744e+002
2.217949e+003,4.128999e+002
2.219878e+003,4.378560e+002
2.221806e+003,4.567924e+002
2.223735e+003,4.483744e+002
2.225663e+003,4.284940e+002
2.227592e+003,4.129156e+002
2.229520e+003,4.043228e+002
2.231448e+003,4.169243e+002
2.233377e+003,4.468212e+002
2.235305e+003,4.491301e+002
2.237234e+003,4.225897e+002
2.239162e+003,4.159367e+002
2.241091e+003,4.375678e+002
2.243019e+003,4.555793e+002
2.244948e+003,4.638164e+002
2.246876e+003,4.690722e+002
2.248805e+003,4.709503e+002
2.250733e+003,4.725495e+002
2.252662e+003,4.769847e+002
2.254590e+003,4.787831e+002
2.256519e+003,4.761606e+002
2.258447e+003,4.679367e+002
2.260375e+003,4.483669e+002
2.262304e+003,4.254280e+002
2.264232e+003,4.080577e+002
2.266161e+003,3.993876e+002
2.268089e+003,4.187773e+002
2.270018e+003,4.601543e+002
2.271946e+003,4.644889e+002
2.273875e+003,4.225182e+002
2.275803e+003,4.066558e+002
2.277732e+003,4.368802e+002
2.279660e+003,4.594153e+002
2.281589e+003,4.729576e+002
2.283517e+003,4.744644e+002
2.285446e+003,4.455578e+002
2.287374e+003,4.301745e+002
2.289302e+003,4.602039e+002
2.291231e+003,4.850329e+002
2.293159e+003,4.682683e+002
2.295088e+003,4.438671e+002
2.297016e+003,4.371913e+002
2.298945e+003,4.432379e+002
2.300873e+003,4.644219e+002
2.302802e+003,4.898230e+002
2.304730e+003,4.888992e+002
2.306659e+003,4.653915e+002
2.308587e+003,4.489307e+002
2.310516e+003,4.400003e+002
2.312444e+003,4.333921e+002
2.314373e+003,4.272470e+002
2.316301e+003,4.372537e+002
2.318229e+003,4.717693e+002
2.320158e+003,4.921898e+002
2.322086e+003,4.858552e+002
2.324015e+003,4.789201e+002
2.325943e+003,4.839409e+002
2.327872e+003,4.836076e+002
2.329800e+003,4.628981e+002
2.331729e+003,4.455410e+002
2.333657e+003,4.437329e+002
2.335586e+003,4.527112e+002
2.337514e+003,4.784493e+002
2.339443e+003,5.041489e+002
2.341371e+003,5.041025e+002
2.343300e+003,4.910386e+002
2.345228e+003,4.900931e+002
2.347156e+003,4.974062e+002
2.349085e+003,5.028998e+002
2.351013e+003,5.058997e+002
2.352942e+003,4.959188e+002
2.354870e+003,4.696768e+002
2.356799e+003,4.518140e+002
2.358727e+003,4.397247e+002
2.360656e+003,4.460448e+002
2.362584e+003,4.851034e+002
2.364513e+003,4.976302e+002
2.366441e+003,4.574305e+002
2.368370e+003,4.367719e+002
2.370298e+003,4.669328e+002
2.372227e+003,4.991809e+002
2.374155e+003,5.187444e+002
2.376083e+003,5.283195e+002
2.378012e+003,5.291296e+002
2.379940e+003,5.208592e+002
2.381869e+003,4.945240e+002
2.383797e+003,4.678734e+002
2.385726e+003,4.588207e+002
2.387654e+003,4.607192e+002
2.389583e+003,4.683607e+002
2.391511e+003,4.778992e+002
2.393440e+003,4.817253e+002
2.395368e+003,4.806825e+002
2.397297e+003,4.740276e+002
2.399225e+003,4.633574e+002
2.401154e+003,4.757993e+002
2.403082e+003,5.176236e+002
2.405010e+003,5.276594e+002
2.406939e+003,4.965418e+002
2.408867e+003,4.817351e+002
2.410796e+003,4.889583e+002
2.412724e+003,4.993013e+002
2.414653e+003,5.098451e+002
2.416581e+003,5.249568e+002
2.418510e+003,5.577390e+002
2.420438e+003,5.709573e+002
2.422367e+003,5.289406e+002
2.424295e+003,5.032686e+002
2.426224e+003,5.408764e+002
2.428152e+003,5.690778e+002
2.430081e+003,5.372065e+002
2.432009e+003,5.085284e+002
2.433938e+003,5.334919e+002
2.435866e+003,5.603849e+002
2.437794e+003,5.402026e+002
2.439723e+003,5.075461e+002
2.441651e+003,4.959396e+002
2.443580e+003,4.994664e+002
2.445508e+003,5.201685e+002
2.447437e+003,5.436273e+002
2.449365e+003,5.299959e+002
2.451294e+003,4.921112e+002
2.453222e+003,4.797791e+002
2.455151e+003,4.875655e+002
2.457079e+003,4.873160e+002
2.459008e+003,4.802735e+002
2.460936e+003,4.924705e+002
2.462865e+003,5.301604e+002
2.464793e+003,5.401125e+002
2.466721e+003,5.075375e+002
2.468650e+003,4.967543e+002
2.470578e+003,5.166709e+002
2.472507e+003,5.190962e+002
2.474435e+003,4.930033e+002
2.476364e+003,4.775835e+002
2.478292e+003,4.845818e+002
2.480221e+003,4.897367e+002
2.482149e+003,4.775765e+002
2.484078e+003,4.784994e+002
2.486006e+003,5.147602e+002
2.487935e+003,5.418212e+002
2.489863e+003,5.388436e+002
2.491792e+003,5.346367e+002
2.493720e+003,5.407287e+002
2.495648e+003,5.463197e+002
2.497577e+003,5.530212e+002
2.499505e+003,5.475769e+002
2.501434e+003,5.047254e+002
2.503362e+003,4.654385e+002
2.505291e+003,4.662010e+002
2.507219e+003,4.853981e+002
2.509148e+003,5.087526e+002
2.511076e+003,5.309676e+002
2.513005e+003,5.516724e+002
2.514933e+003,5.621613e+002
2.516862e+003,5.369970e+002
2.518790e+003,5.007993e+002
2.520719e+003,5.042709e+002
2.522647e+003,5.319546e+002
2.524575e+003,5.443897e+002
2.526504e+003,5.444686e+002
2.528432e+003,5.451228e+002
2.530361e+003,5.445767e+002
2.532289e+003,5.286138e+002
2.534218e+003,5.008744e+002
2.536146e+003,4.857343e+002
2.538075e+003,4.839626e+002
2.540003e+003,4.866490e+002
2.541932e+003,4.936488e+002
2.543860e+003,5.065489e+002
2.545789e+003,5.272974e+002
2.547717e+003,5.443064e+002
2.549646e+003,5.589111e+002
2.551574e+003,5.489208e+002
2.553502e+003,5.062081e+002
2.555431e+003,4.823088e+002
2.557359e+003,4.904084e+002
2.559288e+003,4.990583e+002
2.561216e+003,5.042966e+002
2.563145e+003,5.121378e+002
2.565073e+003,5.256740e+002
2.567002e+003,5.323602e+002
2.568930e+003,5.232567e+002
2.570859e+003,5.303332e+002
2.572787e+003,5.779104e+002
2.574716e+003,6.074532e+002
2.576644e+003,5.930543e+002
2.578573e+003,5.742821e+002
2.580501e+003,5.562048e+002
2.582429e+003,5.427520e+002
2.584358e+003,5.343734e+002
2.586287e+003,5.319447e+002
2.588215e+003,5.423489e+002
2.590144e+003,5.477321e+002
2.592072e+003,5.388981e+002
2.594000e+003,5.248742e+002
2.595929e+003,4.980868e+002
2.597857e+003,4.836820e+002
2.599786e+003,5.085604e+002
2.601714e+003,5.315615e+002
2.603643e+003,5.262788e+002
2.605571e+003,5.173012e+002
2.607500e+003,5.148409e+002
2.609428e+003,5.225568e+002
2.611357e+003,5.591521e+002
2.613285e+003,5.881833e+002
2.615214e+003,5.659224e+002
2.617142e+003,5.382821e+002
2.619071e+003,5.543500e+002
2.620999e+003,5.730994e+002
2.622927e+003,5.503497e+002
2.624856e+003,5.217959e+002
2.626784e+003,5.238892e+002
2.628713e+003,5.395550e+002
2.630641e+003,5.597712e+002
2.632570e+003,5.727852e+002
2.634498e+003,5.518845e+002
2.636427e+003,5.267285e+002
2.638355e+003,5.436063e+002
2.640284e+003,5.690687e+002
2.642212e+003,5.486801e+002
2.644141e+003,5.174898e+002
2.646069e+003,5.338351e+002
2.647998e+003,5.702869e+002
2.649926e+003,5.858117e+002
2.651854e+003,5.876177e+002
2.653783e+003,5.877082e+002
2.655711e+003,5.824148e+002
2.657640e+003,5.593341e+002
2.659568e+003,5.311366e+002
2.661497e+003,5.228343e+002
2.663425e+003,5.258591e+002
2.665354e+003,5.188486e+002
2.667282e+003,5.120559e+002
2.669211e+003,5.323978e+002
2.671139e+003,5.661152e+002
2.673068e+003,5.940795e+002
2.674996e+003,6.101569e+002
2.676925e+003,5.892509e+002
2.678853e+003,5.523599e+002
2.680781e+003,5.541998e+002
2.682710e+003,5.778591e+002
2.684638e+003,5.863492e+002
2.686567e+003,5.823693e+002
2.688495e+003,5.667986e+002
2.690424e+003,5.470030e+002
2.692352e+003,5.421736e+002
2.694281e+003,5.465626e+002
2.696209e+003,5.415392e+002
2.698138e+003,5.355193e+002
2.700066e+003,5.622823e+002
2.701995e+003,5.983021e+002
2.703923e+003,5.834897e+002
2.705852e+003,5.413321e+002
2.707780e+003,5.236024e+002
2.709708e+003,5.268743e+002
2.711637e+003,5.557638e+002
2.713565e+003,5.917692e+002
2.715494e+003,5.819169e+002
2.717422e+003,5.517512e+002
2.719351e+003,5.549827e+002
2.721279e+003,5.759245e+002
2.723208e+003,5.861140e+002
2.725136e+003,5.850180e+002
2.727065e+003,5.613315e+002
2.728993e+003,5.310901e+002
2.730922e+003,5.250328e+002
2.732850e+003,5.362358e+002
2.734779e+003,5.612074e+002
2.736707e+003,5.894444e+002
2.738635e+003,5.996656e+002
2.740564e+003,6.009698e+002
2.742492e+003,6.135934e+002
2.744421e+003,6.254948e+002
2.746349e+003,6.127577e+002
2.748278e+003,5.929780e+002
2.750206e+003,5.932110e+002
2.752135e+003,6.011467e+002
2.754063e+003,6.065188e+002
2.755992e+003,6.014409e+002
2.757920e+003,5.618763e+002
2.759849e+003,5.195982e+002
2.761777e+003,5.068573e+002
2.763706e+003,5.145603e+002
2.765634e+003,5.452614e+002
2.767563e+003,5.772596e+002
2.769491e+003,5.845706e+002
2.771419e+003,5.839560e+002
2.773348e+003,5.911672e+002
2.775276e+003,5.974153e+002
2.777205e+003,5.903918e+002
2.779133e+003,5.842859e+002
2.781062e+003,5.957255e+002
2.782990e+003,6.073709e+002
2.784919e+003,6.104182e+002
2.786847e+003,6.022286e+002
2.788776e+003,5.675462e+002
2.790704e+003,5.400429e+002
2.792633e+003,5.450120e+002
2.794561e+003,5.579677e+002
2.796490e+003,5.744758e+002
2.798418e+003,5.814963e+002
2.800346e+003,5.691411e+002
2.802275e+003,5.546805e+002
2.804203e+003,5.407197e+002
2.806132e+003,5.349484e+002
2.808060e+003,5.367194e+002
2.809989e+003,5.546381e+002
2.811917e+003,6.107125e+002
2.813846e+003,6.373500e+002
2.815774e+003,5.991723e+002
2.817703e+003,5.658661e+002
2.819631e+003,5.606131e+002
2.821560e+003,5.608619e+002
2.823488e+003,5.640877e+002
2.825417e+003,5.707054e+002
2.827345e+003,5.827264e+002
2.829273e+003,5.889860e+002
2.831202e+003,5.780966e+002
2.833130e+003,5.931118e+002
2.835059e+003,6.561813e+002
2.836987e+003,7.003719e+002
2.838916e+003,7.208074e+002
2.840844e+003,7.447057e+002
2.842773e+003,7.758792e+002
2.844701e+003,7.850351e+002
2.846630e+003,7.650093e+002
2.848558e+003,7.552952e+002
2.850487e+003,7.557461e+002
2.852415e+003,7.808915e+002
2.854344e+003,8.263600e+002
2.856272e+003,8.460521e+002
2.858200e+003,8.423615e+002
2.860129e+003,8.519183e+002
2.862057e+003,8.694835e+002
2.863986e+003,8.632230e+002
2.865914e+003,8.392333e+002
2.867843e+003,8.139813e+002
2.869771e+003,7.891944e+002
2.871700e+003,7.686484e+002
2.873628e+003,7.507832e+002
2.875557e+003,7.284211e+002
2.877485e+003,7.100891e+002
2.879414e+003,7.116912e+002
2.881342e+003,7.224334e+002
2.883271e+003,7.315615e+002
2.885199e+003,7.426082e+002
2.887127e+003,7.671367e+002
2.889056e+003,7.849256e+002
2.890984e+003,7.650989e+002
2.892913e+003,7.530666e+002
2.894841e+003,7.812750e+002
2.896770e+003,8.192120e+002
2.898698e+003,8.517891e+002
2.900627e+003,8.873416e+002
2.902555e+003,9.216315e+002
2.904484e+003,9.743126e+002
2.906412e+003,1.049625e+003
2.908341e+003,1.149040e+003
2.910269e+003,1.270615e+003
2.912198e+003,1.423193e+003
2.914126e+003,1.607304e+003
2.916054e+003,1.829234e+003
2.917983e+003,2.102364e+003
2.919911e+003,2.332622e+003
2.921840e+003,2.531906e+003
2.923768e+003,2.555614e+003
2.925697e+003,2.386455e+003
2.927625e+003,2.198617e+003
2.929554e+003,2.002829e+003
2.931482e+003,1.887306e+003
2.933411e+003,1.844083e+003
2.935339e+003,1.797306e+003
2.937268e+003,1.750677e+003
2.939196e+003,1.715225e+003
2.941125e+003,1.698290e+003
2.943053e+003,1.743523e+003
2.944981e+003,1.796575e+003
2.946910e+003,1.764731e+003
2.948838e+003,1.690496e+003
2.950767e+003,1.599713e+003
2.952695e+003,1.531146e+003
2.954624e+003,1.505427e+003
2.956552e+003,1.529543e+003
2.958481e+003,1.642933e+003
2.960409e+003,1.757187e+003
2.962338e+003,1.862296e+003
2.964266e+003,1.888749e+003
2.966195e+003,1.789317e+003
2.968123e+003,1.660617e+003
2.970052e+003,1.487317e+003
2.971980e+003,1.385132e+003
2.973908e+003,1.389737e+003
2.975837e+003,1.382104e+003
2.977765e+003,1.346430e+003
2.979694e+003,1.314179e+003
2.981622e+003,1.293927e+003
2.983551e+003,1.246571e+003
2.985479e+003,1.171787e+003
2.987408e+003,1.060805e+003
2.989336e+003,9.331852e+002
2.991265e+003,9.032890e+002
2.993193e+003,9.413106e+002
2.995122e+003,9.513938e+002
2.997050e+003,9.517178e+002
2.998979e+003,9.904514e+002
3.000907e+003,1.034343e+003
3.002835e+003,1.047294e+003
3.004764e+003,1.036501e+003
3.006692e+003,9.814091e+002
3.008621e+003,9.438280e+002
3.010549e+003,9.777365e+002
3.012478e+003,1.014174e+003
3.014406e+003,1.008599e+003
3.016335e+003,1.014827e+003
3.018263e+003,1.045107e+003
3.020192e+003,1.105731e+003
3.022120e+003,1.205990e+003
3.024049e+003,1.301783e+003
3.025977e+003,1.388685e+003
3.027906e+003,1.450229e+003
3.029834e+003,1.478349e+003
3.031762e+003,1.555910e+003
3.033691e+003,1.673013e+003
3.035619e+003,1.713650e+003
3.037548e+003,1.697589e+003
3.039476e+003,1.705319e+003
3.041405e+003,1.745620e+003
3.043333e+003,1.804886e+003
3.045262e+003,1.949404e+003
3.047190e+003,2.178722e+003
3.049119e+003,2.638002e+003
3.051047e+003,3.648749e+003
3.052976e+003,4.702174e+003
3.054904e+003,5.590752e+003
3.056833e+003,6.204805e+003
3.058761e+003,6.426763e+003
3.060689e+003,6.492355e+003
3.062618e+003,6.503117e+003
3.064546e+003,6.281449e+003
3.066475e+003,5.797127e+003
3.068403e+003,5.137111e+003
3.070332e+003,4.256860e+003
3.072260e+003,3.447126e+003
3.074189e+003,2.707339e+003
3.076117e+003,2.150300e+003
3.078046e+003,1.765355e+003
3.079974e+003,1.515060e+003
3.081903e+003,1.358887e+003
3.083831e+003,1.223747e+003
3.085760e+003,1.114192e+003
3.087688e+003,1.039764e+003
3.089616e+003,9.888597e+002
3.091545e+003,9.710911e+002
3.093473e+003,9.456746e+002
3.095402e+003,8.682215e+002
3.097330e+003,8.146239e+002
3.099259e+003,8.120992e+002
3.101187e+003,8.196713e+002
3.103116e+003,8.406933e+002
3.105044e+003,8.362791e+002
3.106973e+003,8.025521e+002
3.108901e+003,7.807913e+002
3.110830e+003,7.728575e+002
3.112758e+003,7.598069e+002
3.114687e+003,7.425453e+002
3.116615e+003,7.226895e+002
3.118543e+003,7.058369e+002
3.120472e+003,7.087014e+002
3.122400e+003,7.147240e+002
3.124329e+003,7.016284e+002
3.126257e+003,6.870654e+002
3.128186e+003,6.866855e+002
3.130114e+003,6.851796e+002
3.132043e+003,6.715877e+002
3.133971e+003,6.641978e+002
3.135900e+003,6.739145e+002
3.137828e+003,6.730231e+002
3.139757e+003,6.576537e+002
3.141685e+003,6.373304e+002
3.143614e+003,6.115192e+002
3.145542e+003,6.169726e+002
3.147470e+003,6.471474e+002
3.149399e+003,6.593325e+002
3.151327e+003,6.612064e+002
3.153256e+003,6.644669e+002
3.155184e+003,6.718561e+002
3.157113e+003,6.861699e+002
3.159041e+003,7.070984e+002
3.160970e+003,7.425431e+002
3.162898e+003,7.692879e+002
3.164827e+003,7.806102e+002
3.166755e+003,7.716828e+002
3.168684e+003,7.393245e+002
3.170612e+003,7.008452e+002
3.172541e+003,6.559855e+002
3.174469e+003,6.356551e+002
3.176397e+003,6.394377e+002
3.178326e+003,6.007229e+002
3.180254e+003,5.448495e+002
3.182183e+003,5.519909e+002
3.184111e+003,5.879315e+002
3.186040e+003,6.077559e+002
3.187968e+003,6.151367e+002
3.189897e+003,6.066182e+002
3.191825e+003,6.002230e+002
3.193754e+003,6.081635e+002
3.195682e+003,6.155992e+002
3.197611e+003,6.187368e+002
3.199539e+003,6.253449e+002
3.201468e+003,6.390608e+002
3.203396e+003,6.328307e+002
3.205324e+003,6.060453e+002
3.207253e+003,5.953760e+002
3.209181e+003,5.944918e+002
3.211110e+003,5.876717e+002
3.213038e+003,5.737739e+002
3.214967e+003,5.389230e+002
3.216895e+003,5.129073e+002
3.218824e+003,5.340370e+002
3.220752e+003,5.432715e+002
3.222681e+003,4.851125e+002
3.224609e+003,4.650005e+002
3.226538e+003,5.158714e+002
3.228466e+003,5.261391e+002
3.230395e+003,4.763722e+002
3.232323e+003,4.490447e+002
3.234251e+003,4.452896e+002
3.236180e+003,4.638003e+002
3.238108e+003,4.913854e+002
3.240037e+003,5.025894e+002
3.241965e+003,5.043039e+002
3.243894e+003,5.021781e+002
3.245822e+003,4.972218e+002
3.247751e+003,4.866480e+002
3.249679e+003,4.806326e+002
3.251608e+003,4.862190e+002
3.253536e+003,4.893183e+002
3.255465e+003,4.885457e+002
3.257393e+003,4.887143e+002
3.259322e+003,4.900452e+002
3.261250e+003,4.903869e+002
3.263178e+003,4.900431e+002
3.265107e+003,4.909970e+002
3.267035e+003,4.907680e+002
3.268964e+003,4.847155e+002
3.270892e+003,4.787568e+002
3.272821e+003,4.826678e+002
3.274749e+003,4.747527e+002
3.276678e+003,4.339499e+002
3.278606e+003,4.245505e+002
3.280535e+003,4.641239e+002
3.282463e+003,4.845383e+002
3.284392e+003,4.854786e+002
3.286320e+003,4.799225e+002
3.288249e+003,4.714557e+002
3.290177e+003,4.641071e+002
3.292105e+003,4.639531e+002
3.294034e+003,4.861195e+002
3.295962e+003,5.033968e+002
3.297891e+003,4.933731e+002
3.299819e+003,4.851725e+002
3.301748e+003,4.869525e+002
3.303676e+003,4.815627e+002
3.305605e+003,4.629372e+002
3.307533e+003,4.624268e+002
3.309462e+003,4.756923e+002
3.311390e+003,4.745219e+002
3.313319e+003,4.677325e+002
3.315247e+003,4.718456e+002
3.317176e+003,4.774443e+002
3.319104e+003,4.761628e+002
3.321032e+003,4.739919e+002
3.322961e+003,4.726358e+002
3.324889e+003,4.732729e+002
3.326818e+003,4.762117e+002
3.328746e+003,4.804460e+002
3.330675e+003,4.851363e+002
3.332603e+003,4.806187e+002
3.334532e+003,4.703609e+002
3.336460e+003,4.622789e+002
3.338389e+003,4.583887e+002
3.340317e+003,4.666028e+002
3.342246e+003,4.704671e+002
3.344174e+003,4.564604e+002
3.346103e+003,4.476557e+002
3.348031e+003,4.500567e+002
3.349959e+003,4.555602e+002
3.351888e+003,4.639958e+002
3.353816e+003,4.627311e+002
3.355745e+003,4.552733e+002
3.357673e+003,4.519358e+002
3.359602e+003,4.507195e+002
3.361530e+003,4.485605e+002
3.363459e+003,4.479930e+002
3.365387e+003,4.515121e+002
3.367316e+003,4.556892e+002
3.369244e+003,4.655114e+002
3.371173e+003,4.469099e+002
3.373101e+003,4.003271e+002
3.375030e+003,4.047871e+002
3.376958e+003,4.427418e+002
3.378886e+003,4.473974e+002
3.380815e+003,4.420597e+002
3.382743e+003,4.569511e+002
3.384672e+003,4.693478e+002
3.386600e+003,4.640922e+002
3.388529e+003,4.551056e+002
3.390457e+003,4.428447e+002
3.392386e+003,4.400060e+002
3.394314e+003,4.473526e+002
3.396243e+003,4.528144e+002
3.398171e+003,4.556215e+002
3.400100e+003,4.526086e+002
3.402028e+003,4.489004e+002
3.403957e+003,4.506003e+002
3.405885e+003,4.534543e+002
3.407813e+003,4.585054e+002
3.409742e+003,4.565050e+002
3.411670e+003,4.433844e+002
3.413599e+003,4.425164e+002
3.415527e+003,4.515528e+002
3.417456e+003,4.489866e+002
3.419384e+003,4.413547e+002
3.421313e+003,4.409646e+002
3.423241e+003,4.433472e+002
3.425170e+003,4.466583e+002
3.427098e+003,4.492253e+002
3.429027e+003,4.504876e+002
3.430955e+003,4.533812e+002
3.432884e+003,4.580668e+002
3.434812e+003,4.344542e+002
3.436740e+003,3.975160e+002
3.438669e+003,4.143043e+002
3.440597e+003,4.389529e+002
3.442526e+003,4.118914e+002
3.444454e+003,3.915840e+002
3.446383e+003,4.060793e+002
3.448311e+003,4.249486e+002
3.450240e+003,4.444337e+002
3.452168e+003,4.522531e+002
3.454097e+003,4.497922e+002
3.456025e+003,4.460458e+002
3.457954e+003,4.423034e+002
3.459882e+003,4.420989e+002
3.461811e+003,4.400953e+002
3.463739e+003,4.302505e+002
3.465667e+003,4.267294e+002
3.467596e+003,4.380991e+002
3.469524e+003,4.448960e+002
3.471453e+003,4.472654e+002
3.473381e+003,4.489273e+002
3.475310e+003,4.503561e+002
3.477238e+003,4.549233e+002
3.479167e+003,4.557676e+002
3.481095e+003,4.441060e+002
3.483024e+003,4.349410e+002
3.484952e+003,4.320982e+002
3.486881e+003,4.356942e+002
3.488809e+003,4.448612e+002
3.490738e+003,4.457419e+002
3.492666e+003,4.418438e+002
3.494594e+003,4.424328e+002
3.496523e+003,4.431638e+002
3.498451e+003,4.413235e+002
3.500380e+003,4.360744e+002
3.502308e+003,4.242588e+002
3.504237e+003,4.282177e+002
3.506165e+003,4.506480e+002
3.508094e+003,4.535411e+002
3.510022e+003,4.436927e+002
3.511951e+003,4.351240e+002
3.513879e+003,4.284220e+002
3.515808e+003,4.236501e+002
3.517736e+003,4.228309e+002
3.519665e+003,4.272835e+002
3.521593e+003,4.325444e+002
3.523521e+003,4.381099e+002
3.525450e+003,4.383305e+002
3.527378e+003,4.358831e+002
3.529307e+003,4.355533e+002
3.531235e+003,4.363798e+002
3.533164e+003,4.381201e+002
3.535092e+003,4.396459e+002
3.537021e+003,4.410357e+002
3.538949e+003,4.410316e+002
3.540878e+003,4.398543e+002
3.542806e+003,4.394673e+002
3.544735e+003,4.379369e+002
3.546663e+003,4.268863e+002
3.548592e+003,4.216013e+002
3.550520e+003,4.344706e+002
3.552448e+003,4.434373e+002
3.554377e+003,4.434201e+002
3.556305e+003,4.378623e+002
3.558234e+003,4.295489e+002
3.560162e+003,4.295546e+002
3.562091e+003,4.343636e+002
3.564019e+003,4.485818e+002
3.565948e+003,4.484228e+002
3.567876e+003,4.009516e+002
3.569805e+003,3.921743e+002
3.571733e+003,4.273738e+002
3.573662e+003,4.409998e+002
3.575590e+003,4.381419e+002
3.577519e+003,4.341414e+002
3.579447e+003,4.296450e+002
3.581376e+003,4.233078e+002
3.583304e+003,4.205259e+002
3.585233e+003,4.226476e+002
3.587161e+003,4.295492e+002
3.589090e+003,4.394305e+002
3.591018e+003,4.387284e+002
3.592947e+003,4.327174e+002
3.594875e+003,4.282652e+002
3.596803e+003,4.250260e+002
3.598732e+003,4.216574e+002
3.600660e+003,4.237444e+002
3.602589e+003,4.318839e+002
3.604517e+003,4.424621e+002
3.606446e+003,4.458099e+002
3.608374e+003,3.899558e+002
3.610303e+003,3.438250e+002
3.612231e+003,3.808982e+002
3.614160e+003,4.123992e+002
3.616088e+003,4.174220e+002
3.618017e+003,4.178504e+002
3.619945e+003,4.169900e+002
3.621874e+003,4.239305e+002
3.623802e+003,4.333954e+002
3.625730e+003,4.401765e+002
3.627659e+003,4.437684e+002
3.629587e+003,4.441767e+002
3.631516e+003,4.392430e+002
3.633444e+003,4.287036e+002
3.635373e+003,4.251634e+002
3.637301e+003,4.266936e+002
3.639230e+003,4.319230e+002
3.641158e+003,4.356366e+002
3.643087e+003,4.335942e+002
3.645015e+003,4.312121e+002
3.646944e+003,4.293148e+002
3.648872e+003,4.228933e+002
3.650801e+003,4.157867e+002
3.652729e+003,4.275830e+002
3.654657e+003,4.377222e+002
3.656586e+003,4.213449e+002
3.658514e+003,4.151660e+002
3.660443e+003,4.286204e+002
3.662371e+003,4.333345e+002
3.664300e+003,4.302361e+002
3.666228e+003,4.315122e+002
3.668157e+003,4.341906e+002
3.670085e+003,4.384722e+002
3.672014e+003,4.349289e+002
3.673942e+003,4.187134e+002
3.675871e+003,4.156066e+002
3.677799e+003,4.249102e+002
3.679728e+003,4.247049e+002
3.681656e+003,4.210302e+002
3.683584e+003,4.204503e+002
3.685513e+003,4.210656e+002
3.687441e+003,4.222967e+002
3.689370e+003,4.240018e+002
3.691298e+003,4.259990e+002
3.693227e+003,4.292921e+002
3.695155e+003,4.290007e+002
3.697084e+003,4.123109e+002
3.699012e+003,4.039469e+002
3.700941e+003,4.164391e+002
3.702869e+003,4.250453e+002
3.704798e+003,4.275821e+002
3.706726e+003,4.347062e+002
3.708655e+003,4.425157e+002
3.710583e+003,4.486853e+002
3.712511e+003,4.468037e+002
3.714440e+003,4.315618e+002
3.716368e+003,4.188116e+002
3.718297e+003,4.105466e+002
3.720225e+003,4.078079e+002
3.722154e+003,4.109456e+002
3.724082e+003,4.265004e+002
3.726011e+003,4.342617e+002
3.727939e+003,4.223866e+002
3.729868e+003,4.176803e+002
3.731796e+003,4.214596e+002
3.733725e+003,4.169321e+002
3.735653e+003,4.114856e+002
3.737582e+003,4.146335e+002
3.739510e+003,4.209703e+002
3.741438e+003,4.309640e+002
3.743367e+003,4.288107e+002
3.745295e+003,4.169536e+002
3.747224e+003,4.245779e+002
3.749152e+003,4.351817e+002
3.751081e+003,4.302572e+002
3.753009e+003,4.206306e+002
3.754938e+003,4.070685e+002
3.756866e+003,4.083207e+002
3.758795e+003,4.199244e+002
3.760723e+003,4.150101e+002
3.762652e+003,4.072228e+002
3.764580e+003,4.113455e+002
3.766509e+003,4.112393e+002
3.768437e+003,4.027095e+002
3.770365e+003,3.932486e+002
3.772294e+003,3.874529e+002
3.774222e+003,4.044918e+002
3.776151e+003,4.201692e+002
3.778079e+003,4.146683e+002
3.780008e+003,4.105754e+002
3.781936e+003,4.114376e+002
3.783865e+003,4.136705e+002
3.785793e+003,4.171848e+002
3.787722e+003,4.256283e+002
3.789650e+003,4.287692e+002
3.791579e+003,4.171199e+002
3.793507e+003,4.158326e+002
3.795436e+003,4.252428e+002
3.797364e+003,4.200680e+002
3.799292e+003,4.110055e+002
3.801221e+003,4.153537e+002
3.803149e+003,4.149454e+002
3.805078e+003,3.992131e+002
3.807006e+003,4.027737e+002
3.808935e+003,4.190885e+002
3.810863e+003,4.121624e+002
3.812792e+003,4.016320e+002
3.814720e+003,4.044706e+002
3.816649e+003,4.098813e+002
3.818577e+003,4.163354e+002
3.820506e+003,4.196342e+002
3.822434e+003,4.201037e+002
3.824363e+003,4.172017e+002
3.826291e+003,4.155729e+002
3.828219e+003,4.190325e+002
3.830148e+003,4.154771e+002
3.832076e+003,4.049392e+002
3.834005e+003,4.048983e+002
3.835933e+003,4.102935e+002
3.837862e+003,4.195434e+002
3.839790e+003,4.214685e+002
3.841719e+003,4.130989e+002
3.843647e+003,4.058198e+002
3.845576e+003,4.013347e+002
3.847504e+003,4.049951e+002
3.849433e+003,4.093825e+002
3.851361e+003,4.089029e+002
3.853290e+003,4.106397e+002
3.855218e+003,4.145150e+002
3.857146e+003,4.154415e+002
3.859075e+003,4.094502e+002
3.861003e+003,3.801280e+002
3.862932e+003,3.706868e+002
3.864860e+003,4.077104e+002
3.866789e+003,4.045957e+002
3.868717e+003,3.777468e+002
3.870646e+003,3.865688e+002
3.872574e+003,3.988094e+002
3.874503e+003,3.924776e+002
3.876431e+003,3.915541e+002
3.878360e+003,3.983777e+002
3.880288e+003,4.068043e+002
3.882217e+003,4.100508e+002
3.884145e+003,3.903457e+002
3.886073e+003,3.822243e+002
3.888002e+003,3.985790e+002
3.889930e+003,4.029458e+002
3.891859e+003,3.995729e+002
3.893787e+003,4.013348e+002
3.895716e+003,4.034352e+002
3.897644e+003,4.019241e+002
3.899573e+003,4.087371e+002
3.901501e+003,4.225003e+002
3.903430e+003,4.195576e+002
3.905358e+003,4.121064e+002
3.907287e+003,4.125020e+002
3.909215e+003,4.105195e+002
3.911144e+003,4.046671e+002
3.913072e+003,4.084553e+002
3.915000e+003,4.138000e+002
3.916929e+003,4.009030e+002
3.918857e+003,3.950979e+002
3.920786e+003,4.118845e+002
3.922714e+003,4.133767e+002
3.924643e+003,4.041346e+002
3.926571e+003,4.053994e+002
3.928500e+003,4.025339e+002
3.930428e+003,3.801405e+002
3.932357e+003,3.816091e+002
3.934285e+003,4.055451e+002
3.936214e+003,4.055804e+002
3.938142e+003,3.972749e+002
3.940071e+003,3.942762e+002
3.941999e+003,3.923488e+002
3.943927e+003,3.907213e+002
3.945856e+003,3.866401e+002
3.947784e+003,3.831003e+002
3.949713e+003,3.861657e+002
3.951641e+003,3.876353e+002
3.953570e+003,3.851076e+002
3.955498e+003,3.840520e+002
3.957427e+003,3.846995e+002
3.959355e+003,3.884807e+002
3.961284e+003,3.905958e+002
3.963212e+003,3.875793e+002
3.965141e+003,3.846505e+002
3.967069e+003,3.829865e+002
3.968998e+003,3.851796e+002
3.970926e+003,3.913113e+002
3.972854e+003,4.064967e+002
3.974783e+003,4.041896e+002
3.976711e+003,3.873938e+002
3.978640e+003,4.039533e+002
3.980568e+003,4.191487e+002
3.982497e+003,3.939233e+002
3.984425e+003,3.763438e+002
3.986354e+003,3.758075e+002
3.988282e+003,3.716938e+002
3.990211e+003,3.701891e+002
3.992139e+003,3.816502e+002
3.994068e+003,3.929010e+002
3.995996e+003,4.008763e+002
3.997925e+003,4.014622e+002
3.999853e+003,3.960241e+002
4.001781e+003,3.789060e+002
4.003710e+003,3.778390e+002
4.005638e+003,4.037346e+002
4.007567e+003,4.087793e+002
4.009495e+003,3.981433e+002
4.011424e+003,3.768888e+002
4.013352e+003,3.649896e+002
4.015281e+003,3.792606e+002
4.017209e+003,3.762387e+002
4.019138e+003,3.651683e+002
4.021066e+003,3.729778e+002
4.022995e+003,3.794485e+002
4.024923e+003,3.751029e+002
4.026852e+003,3.719332e+002
4.028780e+003,3.710941e+002
4.030708e+003,3.726645e+002
4.032637e+003,3.773409e+002
4.034565e+003,3.880408e+002
4.036494e+003,3.863959e+002
4.038422e+003,3.758201e+002
4.040351e+003,3.778989e+002
4.042279e+003,3.793700e+002
4.044208e+003,3.673467e+002
4.046136e+003,3.661069e+002
4.048065e+003,3.741652e+002
4.049993e+003,3.823193e+002
4.051922e+003,3.847413e+002
4.053850e+003,3.758483e+002
4.055779e+003,3.733792e+002
4.057707e+003,3.776187e+002
4.059635e+003,3.851821e+002
4.061564e+003,3.860976e+002
4.063492e+003,3.681960e+002
4.065421e+003,3.726873e+002
4.067349e+003,3.958608e+002
4.069278e+003,3.928864e+002
4.071206e+003,3.815879e+002
4.073135e+003,3.704149e+002
4.075063e+003,3.659594e+002
4.076992e+003,3.671428e+002
4.078920e+003,3.666610e+002
4.080849e+003,3.649373e+002
4.082777e+003,3.601846e+002
4.084706e+003,3.643808e+002
4.086634e+003,3.738307e+002
4.088563e+003,3.697235e+002
4.090491e+003,3.640863e+002
4.092419e+003,3.640528e+002
4.094348e+003,3.630969e+002
4.096276e+003,3.613977e+002
4.098205e+003,3.641502e+002
4.100133e+003,3.635304e+002
4.102062e+003,3.513279e+002
4.103990e+003,3.567246e+002
4.105919e+003,3.727977e+002
4.107847e+003,3.724447e+002
4.109776e+003,3.658299e+002
4.111704e+003,3.539208e+002
4.113633e+003,3.503297e+002
4.115561e+003,3.532338e+002
4.117490e+003,3.602077e+002
4.119418e+003,3.635465e+002
4.121347e+003,3.601864e+002
4.123275e+003,3.535102e+002
4.125204e+003,3.481664e+002
4.127132e+003,3.536615e+002
4.129061e+003,3.614357e+002
4.130989e+003,3.691125e+002
4.132917e+003,3.552533e+002
4.134846e+003,3.378218e+002
4.136774e+003,3.468923e+002
4.138703e+003,3.597535e+002
4.140631e+003,3.710487e+002
4.142560e+003,3.620819e+002
4.144488e+003,3.484441e+002
4.146417e+003,3.474662e+002
4.148345e+003,3.527726e+002
4.150273e+003,3.626663e+002
4.152202e+003,3.580094e+002
4.154130e+003,3.504717e+002
4.156059e+003,3.513249e+002
4.157987e+003,3.487352e+002
4.159916e+003,3.442058e+002
4.161844e+003,3.572784e+002
4.163773e+003,3.682008e+002
4.165701e+003,3.611670e+002
4.167630e+003,3.575775e+002
4.169558e+003,3.566500e+002
4.171487e+003,3.502549e+002
4.173415e+003,3.475793e+002
4.175344e+003,3.525907e+002
4.177272e+003,3.602979e+002
4.179201e+003,3.658100e+002
4.181129e+003,3.573373e+002
4.183058e+003,3.532755e+002
4.184986e+003,3.578743e+002
4.186915e+003,3.534834e+002
4.188843e+003,3.484663e+002
4.190771e+003,3.544764e+002
4.192700e+003,3.613075e+002
4.194628e+003,3.662211e+002
4.196557e+003,3.536977e+002
4.198485e+003,3.421037e+002
4.200414e+003,3.466758e+002
4.202342e+003,3.496329e+002
4.204271e+003,3.494094e+002
4.206199e+003,3.456660e+002
4.208127e+003,3.448864e+002
4.210056e+003,3.525395e+002
4.211984e+003,3.444020e+002
4.213913e+003,3.321151e+002
4.215841e+003,3.472263e+002
4.217770e+003,3.552823e+002
4.219698e+003,3.454355e+002
4.221627e+003,3.468008e+002
4.223555e+003,3.498201e+002
4.225484e+003,3.391777e+002
4.227412e+003,3.416920e+002
4.229341e+003,3.560492e+002
4.231269e+003,3.448296e+002
4.233198e+003,3.319749e+002
4.235126e+003,3.348295e+002
4.237055e+003,3.379518e+002
4.238983e+003,3.403468e+002
4.240912e+003,3.414558e+002
4.242840e+003,3.405308e+002
4.244769e+003,3.368177e+002
4.246697e+003,3.425310e+002
4.248625e+003,3.504063e+002
4.250554e+003,3.548386e+002
