1.159199e+002,1.079227e+002
1.178484e+002,1.294401e+002
1.197769e+002,1.519199e+002
1.217053e+002,1.756126e+002
1.236338e+002,1.888011e+002
1.255623e+002,1.876264e+002
1.274907e+002,1.781008e+002
1.294192e+002,1.663513e+002
1.313477e+002,1.490279e+002
1.332761e+002,1.332304e+002
1.352046e+002,1.209546e+002
1.371331e+002,1.126494e+002
1.390615e+002,1.060598e+002
1.409900e+002,1.018594e+002
1.429185e+002,9.916117e+001
1.448469e+002,9.666183e+001
1.467754e+002,9.236922e+001
1.487039e+002,8.967632e+001
1.506323e+002,9.136708e+001
1.525608e+002,9.804284e+001
1.544893e+002,1.023827e+002
1.564177e+002,1.012522e+002
1.583462e+002,9.623473e+001
1.602747e+002,9.538808e+001
1.622031e+002,9.937489e+001
1.641316e+002,1.059622e+002
1.660601e+002,1.138489e+002
1.679885e+002,1.239371e+002
1.699170e+002,1.335789e+002
1.718455e+002,1.441881e+002
1.737739e+002,1.553996e+002
1.757024e+002,1.604868e+002
1.776309e+002,1.559047e+002
1.795593e+002,1.472173e+002
1.814878e+002,1.392753e+002
1.834163e+002,1.319550e+002
1.853447e+002,1.254745e+002
1.872732e+002,1.177958e+002
1.892017e+002,1.091823e+002
1.911301e+002,1.077753e+002
1.930586e+002,1.211545e+002
1.949871e+002,1.403984e+002
1.969155e+002,1.543730e+002
1.988440e+002,1.630122e+002
2.007725e+002,1.678025e+002
2.027009e+002,1.687212e+002
2.046294e+002,1.661228e+002
2.065579e+002,1.603489e+002
2.084864e+002,1.496287e+002
2.104148e+002,1.359602e+002
2.123433e+002,1.237960e+002
2.142718e+002,1.128807e+002
2.162002e+002,1.034718e+002
2.181287e+002,9.544447e+001
2.200572e+002,8.889960e+001
2.219856e+002,8.375022e+001
2.239141e+002,8.081251e+001
2.258426e+002,7.929262e+001
2.277710e+002,7.705025e+001
2.296995e+002,7.425893e+001
2.316280e+002,7.059186e+001
2.335564e+002,6.594957e+001
2.354849e+002,5.909585e+001
2.374134e+002,5.292578e+001
2.393418e+002,4.698909e+001
2.412703e+002,4.176103e+001
2.431988e+002,3.818246e+001
2.451272e+002,3.814034e+001
2.470557e+002,3.843970e+001
2.489842e+002,3.749668e+001
2.509126e+002,3.459816e+001
2.528411e+002,3.191252e+001
2.547696e+002,2.947764e+001
2.566980e+002,2.742283e+001
2.586265e+002,2.626222e+001
2.605550e+002,2.631526e+001
2.624834e+002,2.707063e+001
2.644119e+002,2.873907e+001
2.663404e+002,3.178036e+001
2.682688e+002,3.391548e+001
2.701973e+002,3.322172e+001
2.721258e+002,3.065372e+001
2.740542e+002,3.095789e+001
2.759827e+002,3.703851e+001
2.779112e+002,4.355158e+001
2.798396e+002,4.770051e+001
2.817681e+002,4.961507e+001
2.836966e+002,4.979093e+001
2.856250e+002,4.758039e+001
2.875535e+002,4.362740e+001
2.894820e+002,4.050500e+001
2.914104e+002,3.916572e+001
2.933389e+002,3.776664e+001
2.952674e+002,3.507700e+001
2.971958e+002,3.050874e+001
2.991243e+002,2.737014e+001
3.010528e+002,2.673635e+001
3.029813e+002,2.790949e+001
3.049097e+002,2.862952e+001
3.068382e+002,2.833255e+001
3.087667e+002,2.817606e+001
3.106951e+002,2.874744e+001
3.126236e+002,3.035172e+001
3.145521e+002,3.165195e+001
3.164805e+002,3.213005e+001
3.184090e+002,3.227556e+001
3.203375e+002,3.315749e+001
3.222659e+002,3.542813e+001
3.241944e+002,3.750996e+001
3.261229e+002,3.869403e+001
3.280513e+002,3.833838e+001
3.299798e+002,3.875653e+001
3.319083e+002,4.032481e+001
3.338367e+002,4.253348e+001
3.357652e+002,4.478162e+001
3.376937e+002,4.760360e+001
3.396221e+002,4.945395e+001
3.415506e+002,4.994886e+001
3.434791e+002,4.889063e+001
3.454075e+002,4.692617e+001
3.473360e+002,4.282048e+001
3.492645e+002,3.856006e+001
3.511929e+002,3.589908e+001
3.531214e+002,3.589507e+001
3.550499e+002,3.553225e+001
3.569783e+002,3.368190e+001
3.589068e+002,3.040528e+001
3.608353e+002,2.821955e+001
3.627637e+002,2.798946e+001
3.646922e+002,2.819423e+001
3.666207e+002,2.780340e+001
3.685491e+002,2.616272e+001
3.704776e+002,2.538181e+001
3.724061e+002,2.633809e+001
3.743345e+002,2.849294e+001
3.762630e+002,2.980034e+001
3.781915e+002,2.958044e+001
3.801199e+002,2.928623e+001
3.820484e+002,2.960413e+001
3.839769e+002,3.086599e+001
3.859053e+002,3.195171e+001
3.878338e+002,3.236110e+001
3.897623e+002,3.267832e+001
3.916907e+002,3.390176e+001
3.936192e+002,3.678777e+001
3.955477e+002,3.921787e+001
3.974761e+002,4.030178e+001
3.994046e+002,3.967986e+001
4.013331e+002,3.974603e+001
4.032615e+002,4.009929e+001
4.051900e+002,4.136480e+001
4.071185e+002,4.407457e+001
4.090469e+002,4.851952e+001
4.109754e+002,5.349350e+001
4.129039e+002,5.943465e+001
4.148323e+002,6.597104e+001
4.167608e+002,7.062532e+001
4.186893e+002,7.205933e+001
4.206177e+002,7.294490e+001
4.225462e+002,7.487586e+001
4.244747e+002,7.824641e+001
4.264032e+002,7.987526e+001
4.283316e+002,7.709534e+001
4.302601e+002,7.285408e+001
4.321886e+002,7.230709e+001
4.341170e+002,7.658012e+001
4.360455e+002,8.205498e+001
4.379740e+002,8.846685e+001
4.399024e+002,9.569592e+001
4.418309e+002,1.011707e+002
4.437594e+002,1.060219e+002
4.456878e+002,1.083419e+002
4.476163e+002,1.056226e+002
4.495448e+002,9.677813e+001
4.514732e+002,8.781951e+001
4.534017e+002,7.892556e+001
4.553302e+002,7.079156e+001
4.572586e+002,6.551286e+001
4.591871e+002,6.196022e+001
4.611156e+002,6.242618e+001
4.630440e+002,6.997505e+001
4.649725e+002,8.440812e+001
4.669010e+002,9.690704e+001
4.688294e+002,1.087207e+002
4.707579e+002,1.164661e+002
4.726864e+002,1.173869e+002
4.746148e+002,1.054145e+002
4.765433e+002,9.305817e+001
4.784718e+002,7.940763e+001
4.804002e+002,6.592342e+001
4.823287e+002,5.605574e+001
4.842572e+002,5.211009e+001
4.861856e+002,4.931935e+001
4.881141e+002,4.524930e+001
4.900426e+002,3.872954e+001
4.919710e+002,3.548733e+001
4.938995e+002,3.764035e+001
4.958280e+002,4.174328e+001
4.977564e+002,4.496475e+001
4.996849e+002,4.756171e+001
5.016134e+002,4.857916e+001
5.035418e+002,4.708550e+001
5.054703e+002,4.374997e+001
5.073988e+002,4.134576e+001
5.093272e+002,3.932211e+001
5.112557e+002,3.853807e+001
5.131842e+002,4.018259e+001
5.151127e+002,4.407016e+001
5.170411e+002,4.675698e+001
5.189696e+002,4.499771e+001
5.208981e+002,4.340703e+001
5.228265e+002,4.616776e+001
5.247550e+002,5.589302e+001
5.266835e+002,6.468443e+001
5.286119e+002,7.224611e+001
5.305404e+002,7.803280e+001
5.324689e+002,8.096255e+001
5.343973e+002,7.817014e+001
5.363258e+002,7.559139e+001
5.382543e+002,7.561575e+001
5.401827e+002,7.850487e+001
5.421112e+002,7.899841e+001
5.440397e+002,7.505722e+001
5.459681e+002,7.018487e+001
5.478966e+002,6.655893e+001
5.498251e+002,6.464747e+001
5.517535e+002,6.253445e+001
5.536820e+002,5.982840e+001
5.556105e+002,5.690203e+001
5.575389e+002,5.422918e+001
5.594674e+002,5.142064e+001
5.613959e+002,4.956350e+001
5.633243e+002,4.988667e+001
5.652528e+002,5.172889e+001
5.671813e+002,5.213734e+001
5.691097e+002,4.949326e+001
5.710382e+002,4.666616e+001
5.729667e+002,4.413975e+001
5.748951e+002,4.180560e+001
5.768236e+002,4.193086e+001
5.787521e+002,4.768060e+001
5.806805e+002,5.409346e+001
5.826090e+002,5.704636e+001
5.845375e+002,5.368579e+001
5.864659e+002,5.223753e+001
5.883944e+002,5.469203e+001
5.903229e+002,5.935614e+001
5.922513e+002,6.313923e+001
5.941798e+002,6.661521e+001
5.961083e+002,6.828515e+001
5.980367e+002,6.541812e+001
5.999652e+002,5.875027e+001
6.018937e+002,5.825080e+001
6.038221e+002,6.932329e+001
6.057506e+002,8.140472e+001
6.076791e+002,9.018005e+001
6.096075e+002,9.558466e+001
6.115360e+002,1.003042e+002
6.134645e+002,1.055222e+002
6.153929e+002,1.093257e+002
6.173214e+002,1.104310e+002
6.192499e+002,1.082692e+002
6.211783e+002,1.042015e+002
6.231068e+002,9.723640e+001
6.250353e+002,8.891722e+001
6.269637e+002,8.133834e+001
6.288922e+002,7.384848e+001
6.308207e+002,6.846313e+001
6.327491e+002,6.715684e+001
6.346776e+002,6.874455e+001
6.366061e+002,6.839857e+001
6.385345e+002,6.265542e+001
6.404630e+002,5.834698e+001
6.423915e+002,5.893935e+001
6.443199e+002,6.375965e+001
6.462484e+002,6.645095e+001
6.481769e+002,6.603136e+001
6.501053e+002,6.365494e+001
6.520338e+002,5.954257e+001
6.539623e+002,5.221425e+001
6.558907e+002,4.759511e+001
6.578192e+002,4.774265e+001
6.597477e+002,4.925175e+001
6.616761e+002,4.902409e+001
6.636046e+002,4.701580e+001
6.655331e+002,4.417095e+001
6.674615e+002,3.858975e+001
6.693900e+002,3.295503e+001
6.713185e+002,3.094579e+001
6.732469e+002,3.723539e+001
6.751754e+002,4.194118e+001
6.771039e+002,4.383741e+001
6.790323e+002,4.331167e+001
6.809608e+002,4.167900e+001
6.828893e+002,3.781252e+001
6.848177e+002,3.474623e+001
6.867462e+002,3.389160e+001
6.886747e+002,3.512107e+001
6.906031e+002,3.594249e+001
6.925316e+002,3.656408e+001
6.944601e+002,3.660875e+001
6.963885e+002,3.484795e+001
6.983170e+002,3.154406e+001
7.002455e+002,3.121614e+001
7.021740e+002,3.738269e+001
7.041024e+002,4.377907e+001
7.060309e+002,4.676955e+001
7.079594e+002,4.538897e+001
7.098878e+002,4.339066e+001
7.118163e+002,4.001777e+001
7.137448e+002,3.669672e+001
7.156732e+002,3.476483e+001
7.176017e+002,3.422452e+001
7.195302e+002,3.432643e+001
7.214586e+002,3.627135e+001
7.233871e+002,3.811889e+001
7.253156e+002,3.759592e+001
7.272440e+002,3.180336e+001
7.291725e+002,2.867296e+001
7.311010e+002,3.058817e+001
7.330294e+002,3.520221e+001
7.349579e+002,3.839072e+001
7.368864e+002,3.984986e+001
7.388149e+002,4.080590e+001
7.407433e+002,4.185659e+001
7.426718e+002,4.265231e+001
7.446003e+002,4.222311e+001
7.465287e+002,3.785946e+001
7.484572e+002,3.551063e+001
7.503857e+002,3.759603e+001
7.523141e+002,4.297203e+001
7.542426e+002,4.625862e+001
7.561711e+002,4.463905e+001
7.580995e+002,4.535014e+001
7.600280e+002,5.307573e+001
7.619565e+002,6.626788e+001
7.638849e+002,7.685766e+001
7.658134e+002,8.383908e+001
7.677419e+002,8.851496e+001
7.696703e+002,9.145557e+001
7.715988e+002,9.238072e+001
7.735273e+002,8.976482e+001
7.754557e+002,8.153737e+001
7.773842e+002,7.202600e+001
7.793127e+002,6.213525e+001
7.812411e+002,5.201587e+001
7.831696e+002,4.551049e+001
7.850981e+002,4.613338e+001
7.870266e+002,4.780323e+001
7.889550e+002,4.727456e+001
7.908835e+002,4.373893e+001
7.928120e+002,4.395575e+001
7.947404e+002,5.205658e+001
7.966689e+002,6.053876e+001
7.985974e+002,6.591604e+001
8.005258e+002,6.834230e+001
8.024543e+002,6.708358e+001
8.043828e+002,5.552335e+001
8.063112e+002,4.519062e+001
8.082397e+002,4.318856e+001
8.101682e+002,5.275062e+001
8.120966e+002,6.069152e+001
8.140251e+002,6.650273e+001
8.159536e+002,7.101714e+001
8.178820e+002,7.365501e+001
8.198105e+002,7.422525e+001
8.217390e+002,7.826842e+001
8.236674e+002,8.686580e+001
8.255959e+002,9.952536e+001
8.275244e+002,1.158977e+002
8.294528e+002,1.351591e+002
8.313813e+002,1.614519e+002
8.333098e+002,2.001525e+002
8.352382e+002,2.419663e+002
8.371667e+002,2.846819e+002
8.390952e+002,3.296783e+002
8.410236e+002,3.561106e+002
8.429521e+002,3.542633e+002
8.448806e+002,3.352569e+002
8.468090e+002,3.040467e+002
8.487375e+002,2.540923e+002
8.506660e+002,2.088609e+002
8.525944e+002,1.651684e+002
8.545229e+002,1.283439e+002
8.564514e+002,1.047857e+002
8.583798e+002,9.467085e+001
8.603083e+002,8.669573e+001
8.622368e+002,7.952126e+001
8.641652e+002,7.391111e+001
8.660937e+002,6.963367e+001
8.680222e+002,6.596716e+001
8.699506e+002,6.736233e+001
8.718791e+002,7.782899e+001
8.738076e+002,8.993200e+001
8.757360e+002,9.785432e+001
8.776645e+002,1.006368e+002
8.795930e+002,1.085136e+002
8.815214e+002,1.260222e+002
8.834499e+002,1.453577e+002
8.853784e+002,1.654509e+002
8.873068e+002,1.867389e+002
8.892353e+002,1.945983e+002
8.911638e+002,1.776996e+002
8.930922e+002,1.549018e+002
8.950207e+002,1.325805e+002
8.969492e+002,1.104526e+002
8.988776e+002,9.307701e+001
9.008061e+002,8.238245e+001
9.027346e+002,7.436691e+001
9.046630e+002,6.679683e+001
9.065915e+002,6.005661e+001
9.085200e+002,5.725370e+001
9.104484e+002,6.070413e+001
9.123769e+002,6.578891e+001
9.143054e+002,7.229466e+001
9.162338e+002,8.002231e+001
9.181623e+002,8.275871e+001
9.200908e+002,7.732923e+001
9.220192e+002,7.095123e+001
9.239477e+002,6.511578e+001
9.258762e+002,5.995541e+001
9.278046e+002,5.594012e+001
9.297331e+002,5.368244e+001
9.316616e+002,5.141213e+001
9.335900e+002,4.749231e+001
9.355185e+002,4.299878e+001
9.374470e+002,4.119175e+001
9.393754e+002,4.552282e+001
9.413039e+002,4.812434e+001
9.432324e+002,4.686512e+001
9.451608e+002,4.336841e+001
9.470893e+002,4.078106e+001
9.490178e+002,3.915889e+001
9.509462e+002,3.808305e+001
9.528747e+002,3.721704e+001
9.548032e+002,3.701197e+001
9.567316e+002,3.833493e+001
9.586601e+002,4.209494e+001
9.605886e+002,4.423604e+001
9.625170e+002,4.261940e+001
9.644455e+002,4.011614e+001
9.663740e+002,3.921636e+001
9.683024e+002,4.059012e+001
9.702309e+002,4.205607e+001
9.721594e+002,4.364534e+001
9.740878e+002,4.529651e+001
9.760163e+002,4.669012e+001
9.779448e+002,4.787615e+001
9.798733e+002,5.002571e+001
9.818018e+002,5.285025e+001
9.837302e+002,5.732028e+001
9.856587e+002,6.476236e+001
9.875872e+002,7.524226e+001
9.895156e+002,8.322119e+001
9.914441e+002,9.055956e+001
9.933726e+002,9.351443e+001
9.953010e+002,8.916464e+001
9.972295e+002,7.911555e+001
9.991580e+002,6.953217e+001
1.001086e+003,5.949900e+001
1.003015e+003,5.173557e+001
1.004943e+003,4.814644e+001
1.006872e+003,4.715193e+001
1.008800e+003,4.661560e+001
1.010729e+003,4.691956e+001
1.012657e+003,4.667981e+001
1.014586e+003,4.480988e+001
1.016514e+003,4.279328e+001
1.018443e+003,4.237717e+001
1.020371e+003,4.451513e+001
1.022300e+003,4.595642e+001
1.024228e+003,4.485303e+001
1.026156e+003,4.443796e+001
1.028085e+003,4.790554e+001
1.030013e+003,5.478771e+001
1.031942e+003,6.007013e+001
1.033870e+003,6.111591e+001
1.035799e+003,6.299544e+001
1.037727e+003,6.910995e+001
1.039656e+003,7.890563e+001
1.041584e+003,8.536765e+001
1.043513e+003,8.774214e+001
1.045441e+003,8.751632e+001
1.047370e+003,8.431235e+001
1.049298e+003,7.872134e+001
1.051227e+003,7.154809e+001
1.053155e+003,6.114277e+001
1.055083e+003,5.383545e+001
1.057012e+003,5.272816e+001
1.058940e+003,5.467602e+001
1.060869e+003,5.667163e+001
1.062797e+003,5.863634e+001
1.064726e+003,6.108009e+001
1.066654e+003,6.117122e+001
1.068583e+003,6.430140e+001
1.070511e+003,7.488526e+001
1.072440e+003,9.380388e+001
1.074368e+003,1.097521e+002
1.076297e+003,1.181349e+002
1.078225e+003,1.289621e+002
1.080154e+003,1.480649e+002
1.082082e+003,1.723324e+002
1.084010e+003,1.929247e+002
1.085939e+003,2.101015e+002
1.087867e+003,2.234995e+002
1.089796e+003,2.357240e+002
1.091724e+003,2.425404e+002
1.093653e+003,2.371960e+002
1.095581e+003,2.158381e+002
1.097510e+003,1.940629e+002
1.099438e+003,1.721962e+002
1.101367e+003,1.517096e+002
1.103295e+003,1.333505e+002
1.105224e+003,1.172926e+002
1.107152e+003,1.038603e+002
1.109081e+003,9.246006e+001
1.111009e+003,8.418512e+001
1.112938e+003,7.921181e+001
1.114866e+003,7.781379e+001
1.116794e+003,8.064482e+001
1.118723e+003,8.850137e+001
1.120651e+003,9.844470e+001
1.122580e+003,1.138153e+002
1.124508e+003,1.283223e+002
1.126437e+003,1.351913e+002
1.128365e+003,1.327759e+002
1.130294e+003,1.275677e+002
1.132222e+003,1.178420e+002
1.134151e+003,1.077370e+002
1.136079e+003,9.884479e+001
1.138008e+003,9.133673e+001
1.139936e+003,8.626932e+001
1.141865e+003,8.274292e+001
1.143793e+003,8.282177e+001
1.145721e+003,8.858931e+001
1.147650e+003,9.801336e+001
1.149578e+003,1.078576e+002
1.151507e+003,1.179554e+002
1.153435e+003,1.290129e+002
1.155364e+003,1.474382e+002
1.157292e+003,1.616056e+002
1.159221e+003,1.628921e+002
1.161149e+003,1.497164e+002
1.163078e+003,1.362185e+002
1.165006e+003,1.215545e+002
1.166935e+003,1.075954e+002
1.168863e+003,9.464640e+001
1.170792e+003,8.283181e+001
1.172720e+003,7.225366e+001
1.174648e+003,6.154604e+001
1.176577e+003,5.513467e+001
1.178505e+003,5.702699e+001
1.180434e+003,6.140509e+001
1.182362e+003,6.297576e+001
1.184291e+003,6.187947e+001
1.186219e+003,6.255671e+001
1.188148e+003,6.658035e+001
1.190076e+003,7.115604e+001
1.192005e+003,7.555249e+001
1.193933e+003,7.961401e+001
1.195862e+003,8.286988e+001
1.197790e+003,8.654521e+001
1.199719e+003,8.729794e+001
1.201647e+003,8.323983e+001
1.203575e+003,7.727788e+001
1.205504e+003,7.149424e+001
1.207432e+003,6.573361e+001
1.209361e+003,6.197577e+001
1.211289e+003,6.145644e+001
1.213218e+003,6.151381e+001
1.215146e+003,6.128646e+001
1.217075e+003,6.086283e+001
1.219003e+003,6.040350e+001
1.220932e+003,5.994013e+001
1.222860e+003,5.941563e+001
1.224789e+003,5.832479e+001
1.226717e+003,5.756889e+001
1.228646e+003,5.839187e+001
1.230574e+003,6.116959e+001
1.232502e+003,6.145347e+001
1.234431e+003,5.616647e+001
1.236359e+003,5.174844e+001
1.238288e+003,4.870147e+001
1.240216e+003,4.793141e+001
1.242145e+003,5.199634e+001
1.244073e+003,6.381725e+001
1.246002e+003,7.291602e+001
1.247930e+003,7.622179e+001
1.249859e+003,7.866650e+001
1.251787e+003,8.451064e+001
1.253716e+003,9.255560e+001
1.255644e+003,9.694607e+001
1.257573e+003,9.547467e+001
1.259501e+003,9.442456e+001
1.261429e+003,9.603300e+001
1.263358e+003,9.928778e+001
1.265286e+003,1.019494e+002
1.267215e+003,1.027887e+002
1.269143e+003,1.109872e+002
1.271072e+003,1.352120e+002
1.273000e+003,1.589555e+002
1.274929e+003,1.782468e+002
1.276857e+003,1.923846e+002
1.278786e+003,1.989415e+002
1.280714e+003,1.959656e+002
1.282643e+003,1.881793e+002
1.284571e+003,1.692604e+002
1.286500e+003,1.508770e+002
1.288428e+003,1.415737e+002
1.290356e+003,1.412428e+002
1.292285e+003,1.462157e+002
1.294213e+003,1.580707e+002
1.296142e+003,1.720892e+002
1.298070e+003,1.900015e+002
1.299999e+003,2.071685e+002
1.301927e+003,2.188227e+002
1.303856e+003,2.248072e+002
1.305784e+003,2.259625e+002
1.307713e+003,2.169376e+002
1.309641e+003,2.105311e+002
1.311570e+003,2.097745e+002
1.313498e+003,2.157588e+002
1.315427e+003,2.319568e+002
1.317355e+003,2.626732e+002
1.319283e+003,2.946530e+002
1.321212e+003,3.388012e+002
1.323140e+003,3.726604e+002
1.325069e+003,3.822542e+002
1.326997e+003,3.684618e+002
1.328926e+003,3.403524e+002
1.330854e+003,2.865319e+002
1.332783e+003,2.374770e+002
1.334711e+003,1.965906e+002
1.336640e+003,1.635330e+002
1.338568e+003,1.377720e+002
1.340497e+003,1.192617e+002
1.342425e+003,1.107727e+002
1.344354e+003,1.169115e+002
1.346282e+003,1.249891e+002
1.348210e+003,1.330583e+002
1.350139e+003,1.386433e+002
1.352068e+003,1.385977e+002
1.353996e+003,1.327009e+002
1.355924e+003,1.242804e+002
1.357853e+003,1.114482e+002
1.359781e+003,9.942332e+001
1.361710e+003,8.961518e+001
1.363638e+003,8.216042e+001
1.365567e+003,7.763326e+001
1.367495e+003,7.709183e+001
1.369424e+003,7.666543e+001
1.371352e+003,7.592969e+001
1.373281e+003,7.550064e+001
1.375209e+003,7.558504e+001
1.377138e+003,7.621812e+001
1.379066e+003,7.744440e+001
1.380995e+003,7.880419e+001
1.382923e+003,8.166189e+001
1.384851e+003,8.621137e+001
1.386780e+003,9.214899e+001
1.388708e+003,9.873090e+001
1.390637e+003,1.065191e+002
1.392565e+003,1.169850e+002
1.394494e+003,1.291763e+002
1.396422e+003,1.469328e+002
1.398351e+003,1.760272e+002
1.400279e+003,2.066917e+002
1.402208e+003,2.323310e+002
1.404136e+003,2.538219e+002
1.406065e+003,2.751098e+002
1.407993e+003,2.990985e+002
1.409922e+003,3.144653e+002
1.411850e+003,3.157819e+002
1.413778e+003,3.090894e+002
1.415707e+003,2.965291e+002
1.417635e+003,2.788562e+002
1.419564e+003,2.631638e+002
1.421492e+003,2.512422e+002
1.423421e+003,2.381212e+002
1.425349e+003,2.195170e+002
1.427278e+003,2.019034e+002
1.429206e+003,1.904838e+002
1.431135e+003,1.851503e+002
1.433063e+003,1.818521e+002
1.434992e+003,1.749538e+002
1.436920e+003,1.780188e+002
1.438849e+003,2.046181e+002
1.440777e+003,2.320394e+002
1.442705e+003,2.424562e+002
1.444634e+003,2.361629e+002
1.446562e+003,2.209575e+002
1.448491e+003,1.899957e+002
1.450419e+003,1.627338e+002
1.452348e+003,1.426665e+002
1.454276e+003,1.274214e+002
1.456205e+003,1.158687e+002
1.458133e+003,1.077424e+002
1.460062e+003,1.017092e+002
1.461990e+003,9.804182e+001
1.463919e+003,9.561103e+001
1.465847e+003,9.482179e+001
1.467776e+003,9.459353e+001
1.469704e+003,9.359551e+001
1.471632e+003,9.247060e+001
1.473561e+003,9.377939e+001
1.475489e+003,9.831573e+001
1.477418e+003,1.029205e+002
1.479346e+003,1.051656e+002
1.481275e+003,1.089526e+002
1.483203e+003,1.179785e+002
1.485132e+003,1.305442e+002
1.487060e+003,1.406367e+002
1.488989e+003,1.485508e+002
1.490917e+003,1.523969e+002
1.492846e+003,1.507321e+002
1.494774e+003,1.459741e+002
1.496703e+003,1.383369e+002
1.498631e+003,1.286088e+002
1.500559e+003,1.188610e+002
1.502488e+003,1.084438e+002
1.504416e+003,9.984987e+001
1.506345e+003,9.358403e+001
1.508273e+003,8.866261e+001
1.510202e+003,8.455997e+001
1.512130e+003,8.156515e+001
1.514059e+003,8.019971e+001
1.515987e+003,8.041774e+001
1.517916e+003,8.254229e+001
1.519844e+003,9.006903e+001
1.521773e+003,9.502329e+001
1.523701e+003,9.295213e+001
1.525630e+003,8.811709e+001
1.527558e+003,8.598017e+001
1.529486e+003,8.681870e+001
1.531415e+003,8.783851e+001
1.533343e+003,8.778116e+001
1.535272e+003,8.952402e+001
1.537200e+003,9.543536e+001
1.539129e+003,1.019490e+002
1.541057e+003,1.062857e+002
1.542986e+003,1.084444e+002
1.544914e+003,1.087418e+002
1.546843e+003,1.067645e+002
1.548771e+003,1.042039e+002
1.550700e+003,1.008212e+002
1.552628e+003,9.751607e+001
1.554557e+003,9.482761e+001
1.556485e+003,9.261463e+001
1.558413e+003,8.998290e+001
1.560342e+003,8.634286e+001
1.562270e+003,8.613641e+001
1.564199e+003,9.199680e+001
1.566127e+003,9.872884e+001
1.568056e+003,1.043923e+002
1.569984e+003,1.091837e+002
1.571913e+003,1.128978e+002
1.573841e+003,1.156507e+002
1.575770e+003,1.202089e+002
1.577698e+003,1.274183e+002
1.579627e+003,1.351888e+002
1.581555e+003,1.436217e+002
1.583484e+003,1.515515e+002
1.585412e+003,1.564409e+002
1.587340e+003,1.598483e+002
1.589269e+003,1.686591e+002
1.591197e+003,1.842213e+002
1.593126e+003,2.012483e+002
1.595054e+003,2.231711e+002
1.596983e+003,2.401864e+002
1.598911e+003,2.479906e+002
1.600840e+003,2.471768e+002
1.602768e+003,2.360429e+002
1.604697e+003,2.133288e+002
1.606625e+003,1.971446e+002
1.608554e+003,1.911160e+002
1.610482e+003,1.889951e+002
1.612411e+003,1.923255e+002
1.614339e+003,1.956450e+002
1.616267e+003,1.942911e+002
1.618196e+003,1.886358e+002
1.620124e+003,1.809475e+002
1.622053e+003,1.702311e+002
1.623981e+003,1.605774e+002
1.625910e+003,1.522013e+002
1.627838e+003,1.456047e+002
1.629767e+003,1.405069e+002
1.631695e+003,1.374958e+002
1.633624e+003,1.389736e+002
1.635552e+003,1.461006e+002
1.637481e+003,1.484927e+002
1.639409e+003,1.424445e+002
1.641338e+003,1.367727e+002
1.643266e+003,1.354459e+002
1.645194e+003,1.338228e+002
1.647123e+003,1.283878e+002
1.649051e+003,1.194123e+002
1.650980e+003,1.074881e+002
1.652908e+003,8.889768e+001
1.654837e+003,7.818781e+001
1.656765e+003,8.528760e+001
1.658694e+003,9.043276e+001
1.660622e+003,8.352890e+001
1.662551e+003,7.319327e+001
1.664479e+003,7.059782e+001
1.666408e+003,7.613235e+001
1.668336e+003,8.101295e+001
1.670265e+003,8.366831e+001
1.672193e+003,8.894171e+001
1.674121e+003,9.937580e+001
1.676050e+003,1.105312e+002
1.677978e+003,1.219957e+002
1.679907e+003,1.318618e+002
1.681835e+003,1.358483e+002
1.683764e+003,1.329986e+002
1.685692e+003,1.283812e+002
1.687621e+003,1.227202e+002
1.689549e+003,1.141992e+002
1.691478e+003,9.795074e+001
1.693406e+003,8.339394e+001
1.695335e+003,7.884953e+001
1.697263e+003,8.136673e+001
1.699192e+003,8.105445e+001
1.701120e+003,7.677903e+001
1.703048e+003,7.384670e+001
1.704977e+003,7.345596e+001
1.706905e+003,7.307928e+001
1.708834e+003,7.206367e+001
1.710762e+003,7.075812e+001
1.712691e+003,6.912334e+001
1.714619e+003,6.740086e+001
1.716548e+003,6.722541e+001
1.718476e+003,6.988805e+001
1.720405e+003,6.990771e+001
1.722333e+003,6.306468e+001
1.724262e+003,5.867363e+001
1.726190e+003,6.135769e+001
1.728119e+003,6.617204e+001
1.730047e+003,6.846129e+001
1.731975e+003,6.854689e+001
1.733904e+003,6.878847e+001
1.735832e+003,6.866816e+001
1.737761e+003,7.059663e+001
1.739689e+003,7.851427e+001
1.741618e+003,8.339898e+001
1.743546e+003,8.005021e+001
1.745475e+003,7.413984e+001
1.747403e+003,7.057360e+001
1.749332e+003,6.926730e+001
1.751260e+003,7.028504e+001
1.753189e+003,7.479373e+001
1.755117e+003,7.649078e+001
1.757046e+003,7.213441e+001
1.758974e+003,6.866135e+001
1.760902e+003,6.992239e+001
1.762831e+003,7.207342e+001
1.764759e+003,7.096556e+001
1.766688e+003,6.764532e+001
1.768616e+003,6.723328e+001
1.770545e+003,7.044170e+001
1.772473e+003,7.247102e+001
1.774402e+003,7.216203e+001
1.776330e+003,7.125725e+001
1.778259e+003,6.946339e+001
1.780187e+003,6.822939e+001
1.782116e+003,6.926691e+001
1.784044e+003,7.169791e+001
1.785973e+003,7.326112e+001
1.787901e+003,7.395078e+001
1.789829e+003,7.319120e+001
1.791758e+003,6.994596e+001
1.793686e+003,6.757498e+001
1.795615e+003,6.760828e+001
1.797543e+003,6.851558e+001
1.799472e+003,7.016354e+001
1.801400e+003,7.153883e+001
1.803329e+003,6.985445e+001
1.805257e+003,6.525288e+001
1.807186e+003,6.370862e+001
1.809114e+003,6.687884e+001
1.811043e+003,6.983616e+001
1.812971e+003,7.235175e+001
1.814900e+003,7.292619e+001
1.816828e+003,6.867899e+001
1.818756e+003,6.320572e+001
1.820685e+003,6.153777e+001
1.822613e+003,6.332903e+001
1.824542e+003,6.652557e+001
1.826470e+003,7.213752e+001
1.828399e+003,7.532903e+001
1.830327e+003,7.331655e+001
1.832256e+003,7.144099e+001
1.834184e+003,7.236414e+001
1.836113e+003,7.367117e+001
1.838041e+003,7.290161e+001
1.839970e+003,7.061485e+001
1.841898e+003,6.859910e+001
1.843827e+003,6.651745e+001
1.845755e+003,6.606171e+001
1.847684e+003,6.814622e+001
1.849612e+003,7.049543e+001
1.851541e+003,7.309570e+001
1.853469e+003,7.535936e+001
1.855397e+003,7.750574e+001
1.857326e+003,7.872160e+001
1.859254e+003,7.713568e+001
1.861183e+003,7.269433e+001
1.863111e+003,6.960101e+001
1.865040e+003,6.789948e+001
1.866968e+003,6.752916e+001
1.868897e+003,6.983202e+001
1.870825e+003,7.170058e+001
1.872754e+003,7.206319e+001
1.874682e+003,7.179296e+001
1.876611e+003,7.172649e+001
1.878539e+003,7.158569e+001
1.880468e+003,7.010320e+001
1.882396e+003,6.708509e+001
1.884324e+003,6.622771e+001
1.886253e+003,6.873354e+001
1.888181e+003,7.059348e+001
1.890110e+003,7.034621e+001
1.892038e+003,6.996262e+001
1.893967e+003,7.029790e+001
1.895895e+003,7.109125e+001
1.897824e+003,7.259770e+001
1.899752e+003,7.430763e+001
1.901681e+003,7.443420e+001
1.903609e+003,7.287423e+001
1.905538e+003,7.107837e+001
1.907466e+003,6.859473e+001
1.909395e+003,6.755333e+001
1.911323e+003,6.958025e+001
1.913251e+003,7.208522e+001
1.915180e+003,7.385275e+001
1.917108e+003,7.514877e+001
1.919037e+003,7.609724e+001
1.920965e+003,7.681056e+001
1.922894e+003,7.809132e+001
1.924822e+003,8.003430e+001
1.926751e+003,8.216976e+001
1.928679e+003,8.679060e+001
1.930608e+003,8.818900e+001
1.932536e+003,8.323762e+001
1.934465e+003,7.720158e+001
1.936393e+003,7.124625e+001
1.938322e+003,6.711250e+001
1.940250e+003,6.854675e+001
1.942178e+003,7.448107e+001
1.944107e+003,7.699318e+001
1.946035e+003,7.504243e+001
1.947964e+003,7.399364e+001
1.949892e+003,7.478848e+001
1.951821e+003,7.522076e+001
1.953749e+003,7.481137e+001
1.955678e+003,7.393774e+001
1.957606e+003,7.268042e+001
1.959535e+003,7.112226e+001
1.961463e+003,6.853599e+001
1.963392e+003,6.577853e+001
1.965320e+003,6.612875e+001
1.967249e+003,6.970383e+001
1.969177e+003,7.222885e+001
1.971105e+003,7.280488e+001
1.973034e+003,7.390169e+001
1.974962e+003,7.792619e+001
1.976891e+003,8.011394e+001
1.978819e+003,7.565056e+001
1.980748e+003,7.079210e+001
1.982676e+003,7.289229e+001
1.984605e+003,7.858943e+001
1.986533e+003,7.902509e+001
1.988462e+003,7.372028e+001
1.990390e+003,7.152679e+001
1.992319e+003,7.462743e+001
1.994247e+003,7.704093e+001
1.996176e+003,7.938049e+001
1.998104e+003,8.013950e+001
2.000032e+003,7.734928e+001
2.001961e+003,7.460661e+001
2.003889e+003,7.400081e+001
2.005818e+003,7.498448e+001
2.007746e+003,7.764597e+001
2.009675e+003,8.137612e+001
2.011603e+003,8.215801e+001
2.013532e+003,7.967759e+001
2.015460e+003,7.797697e+001
2.017389e+003,7.768554e+001
2.019317e+003,7.754974e+001
2.021246e+003,7.758897e+001
2.023174e+003,7.720651e+001
2.025103e+003,7.463147e+001
2.027031e+003,7.292358e+001
2.028959e+003,7.645573e+001
2.030888e+003,8.190604e+001
2.032816e+003,8.167075e+001
2.034745e+003,7.630410e+001
2.036673e+003,7.628030e+001
2.038602e+003,8.577076e+001
2.040530e+003,8.838758e+001
2.042459e+003,7.562950e+001
2.044387e+003,6.866014e+001
2.046316e+003,7.630152e+001
2.048244e+003,8.341396e+001
2.050173e+003,8.202174e+001
2.052101e+003,7.796017e+001
2.054030e+003,7.652316e+001
2.055958e+003,7.665687e+001
2.057886e+003,7.543373e+001
2.059815e+003,7.319498e+001
2.061743e+003,7.437231e+001
2.063672e+003,7.990427e+001
2.065600e+003,8.183068e+001
2.067529e+003,7.740107e+001
2.069457e+003,7.376199e+001
2.071386e+003,7.252115e+001
2.073314e+003,7.330759e+001
2.075243e+003,7.858308e+001
2.077171e+003,8.330856e+001
2.079100e+003,8.072414e+001
2.081028e+003,7.538932e+001
2.082957e+003,7.785317e+001
2.084885e+003,8.712810e+001
2.086813e+003,8.940031e+001
2.088742e+003,8.074864e+001
2.090670e+003,7.699335e+001
2.092599e+003,8.115933e+001
2.094527e+003,8.413267e+001
2.096456e+003,8.458770e+001
2.098384e+003,8.370640e+001
2.100313e+003,8.176356e+001
2.102241e+003,7.883089e+001
2.104170e+003,7.330015e+001
2.106098e+003,6.800613e+001
2.108027e+003,6.658670e+001
2.109955e+003,6.839065e+001
2.111884e+003,7.239646e+001
2.113812e+003,7.854514e+001
2.115740e+003,8.171465e+001
2.117669e+003,8.131317e+001
2.119597e+003,7.901176e+001
2.121526e+003,6.994949e+001
2.123454e+003,6.674503e+001
2.125383e+003,7.838119e+001
2.127311e+003,8.840042e+001
2.129240e+003,8.750230e+001
2.131168e+003,8.277585e+001
2.133097e+003,7.931011e+001
2.135025e+003,7.704958e+001
2.136954e+003,7.601557e+001
2.138882e+003,7.612096e+001
2.140811e+003,7.717817e+001
2.142739e+003,7.919582e+001
2.144667e+003,8.043078e+001
2.146596e+003,8.064221e+001
2.148524e+003,8.053885e+001
2.150453e+003,8.011102e+001
2.152381e+003,7.962626e+001
2.154310e+003,7.957533e+001
2.156238e+003,7.893456e+001
2.158167e+003,7.609135e+001
2.160095e+003,7.353586e+001
2.162024e+003,7.370891e+001
2.163952e+003,7.561382e+001
2.165881e+003,7.825925e+001
2.167809e+003,8.119336e+001
2.169738e+003,8.159135e+001
2.171666e+003,7.939600e+001
2.173594e+003,7.614793e+001
2.175523e+003,7.122233e+001
2.177451e+003,6.994312e+001
2.179380e+003,7.517197e+001
2.181308e+003,7.838799e+001
2.183237e+003,7.492517e+001
2.185165e+003,7.223677e+001
2.187094e+003,7.400806e+001
2.189022e+003,7.717711e+001
2.190951e+003,8.119243e+001
2.192879e+003,8.405338e+001
2.194808e+003,8.149276e+001
2.196736e+003,7.610495e+001
2.198665e+003,7.584659e+001
2.200593e+003,8.048183e+001
2.202521e+003,8.180531e+001
2.204450e+003,7.940662e+001
2.206378e+003,7.893043e+001
2.208307e+003,8.152345e+001
2.210235e+003,8.275603e+001
2.212164e+003,8.066959e+001
2.214092e+003,7.978899e+001
2.216021e+003,8.356362e+001
2.217949e+003,8.630410e+001
2.219878e+003,8.498761e+001
2.221806e+003,8.204086e+001
2.223735e+003,7.814379e+001
2.225663e+003,7.463498e+001
2.227592e+003,7.371075e+001
2.229520e+003,7.448293e+001
2.231448e+003,7.448180e+001
2.233377e+003,7.384361e+001
2.235305e+003,7.410888e+001
2.237234e+003,7.536690e+001
2.239162e+003,7.509940e+001
2.241091e+003,7.248803e+001
2.243019e+003,7.203787e+001
2.244948e+003,7.549994e+001
2.246876e+003,7.895339e+001
2.248805e+003,8.141652e+001
2.250733e+003,8.350471e+001
2.252662e+003,8.605637e+001
2.254590e+003,8.748121e+001
2.256519e+003,8.655891e+001
2.258447e+003,8.428661e+001
2.260375e+003,8.124047e+001
2.262304e+003,7.780922e+001
2.264232e+003,7.327511e+001
2.266161e+003,6.913577e+001
2.268089e+003,7.145731e+001
2.270018e+003,7.922207e+001
2.271946e+003,8.295359e+001
2.273875e+003,8.176884e+001
2.275803e+003,8.053516e+001
2.277732e+003,7.929807e+001
2.279660e+003,7.880665e+001
2.281589e+003,7.997971e+001
2.283517e+003,8.059024e+001
2.285446e+003,7.929048e+001
2.287374e+003,7.881760e+001
2.289302e+003,8.200603e+001
2.291231e+003,8.375785e+001
2.293159e+003,7.971810e+001
2.295088e+003,7.468166e+001
2.297016e+003,7.162387e+001
2.298945e+003,7.090895e+001
2.300873e+003,7.415427e+001
2.302802e+003,7.975413e+001
2.304730e+003,8.461787e+001
2.306659e+003,8.838219e+001
2.308587e+003,8.739105e+001
2.310516e+003,8.062065e+001
2.312444e+003,7.777531e+001
2.314373e+003,7.934032e+001
2.316301e+003,8.232219e+001
2.318229e+003,8.726070e+001
2.320158e+003,9.028865e+001
2.322086e+003,9.014628e+001
2.324015e+003,8.946998e+001
2.325943e+003,8.969112e+001
2.327872e+003,8.865942e+001
2.329800e+003,8.351299e+001
2.331729e+003,7.943569e+001
2.333657e+003,8.040939e+001
2.335586e+003,8.268399e+001
2.337514e+003,8.339457e+001
2.339443e+003,8.322756e+001
2.341371e+003,8.294040e+001
2.343300e+003,8.246641e+001
2.345228e+003,8.165411e+001
2.347156e+003,8.058691e+001
2.349085e+003,7.915698e+001
2.351013e+003,7.752874e+001
2.352942e+003,7.756200e+001
2.354870e+003,7.935063e+001
2.356799e+003,8.260933e+001
2.358727e+003,8.922540e+001
2.360656e+003,9.167406e+001
2.362584e+003,8.793549e+001
2.364513e+003,8.532298e+001
2.366441e+003,8.514243e+001
2.368370e+003,8.539345e+001
2.370298e+003,8.423088e+001
2.372227e+003,8.584733e+001
2.374155e+003,9.624056e+001
2.376083e+003,1.040480e+002
2.378012e+003,1.019651e+002
2.379940e+003,9.702903e+001
2.381869e+003,9.340058e+001
2.383797e+003,9.041178e+001
2.385726e+003,8.515191e+001
2.387654e+003,8.185486e+001
2.389583e+003,9.006528e+001
2.391511e+003,1.029788e+002
2.393440e+003,1.066527e+002
2.395368e+003,1.032863e+002
2.397297e+003,1.001403e+002
2.399225e+003,9.739416e+001
2.401154e+003,9.752700e+001
2.403082e+003,1.007707e+002
2.405010e+003,1.052445e+002
2.406939e+003,1.114158e+002
2.408867e+003,1.165462e+002
2.410796e+003,1.205661e+002
2.412724e+003,1.230038e+002
2.414653e+003,1.228878e+002
2.416581e+003,1.242803e+002
2.418510e+003,1.264042e+002
2.420438e+003,1.335290e+002
2.422367e+003,1.531257e+002
2.424295e+003,1.682956e+002
2.426224e+003,1.722261e+002
2.428152e+003,1.717871e+002
2.430081e+003,1.685639e+002
2.432009e+003,1.640606e+002
2.433938e+003,1.584196e+002
2.435866e+003,1.528605e+002
2.437794e+003,1.491047e+002
2.439723e+003,1.452078e+002
2.441651e+003,1.376588e+002
2.443580e+003,1.295105e+002
2.445508e+003,1.269678e+002
2.447437e+003,1.267070e+002
2.449365e+003,1.195367e+002
2.451294e+003,1.084064e+002
2.453222e+003,1.051029e+002
2.455151e+003,1.079720e+002
2.457079e+003,1.091507e+002
2.459008e+003,1.086938e+002
2.460936e+003,1.097861e+002
2.462865e+003,1.130326e+002
2.464793e+003,1.134775e+002
2.466721e+003,1.089719e+002
2.468650e+003,1.089548e+002
2.470578e+003,1.150264e+002
2.472507e+003,1.188537e+002
2.474435e+003,1.192656e+002
2.476364e+003,1.189515e+002
2.478292e+003,1.187644e+002
2.480221e+003,1.168299e+002
2.482149e+003,1.101134e+002
2.484078e+003,1.059042e+002
2.486006e+003,1.082373e+002
2.487935e+003,1.097405e+002
2.489863e+003,1.084868e+002
2.491792e+003,1.053730e+002
2.493720e+003,9.731937e+001
2.495648e+003,9.262126e+001
2.497577e+003,9.997914e+001
2.499505e+003,1.068866e+002
2.501434e+003,1.027118e+002
2.503362e+003,9.741030e+001
2.505291e+003,9.931992e+001
2.507219e+003,1.042327e+002
2.509148e+003,1.088582e+002
2.511076e+003,1.131172e+002
2.513005e+003,1.191387e+002
2.514933e+003,1.229991e+002
2.516862e+003,1.162512e+002
2.518790e+003,1.050685e+002
2.520719e+003,1.007507e+002
2.522647e+003,1.013581e+002
2.524575e+003,1.023449e+002
2.526504e+003,1.036519e+002
2.528432e+003,1.058792e+002
2.530361e+003,1.082854e+002
2.532289e+003,1.047107e+002
2.534218e+003,9.685262e+001
2.536146e+003,9.724600e+001
2.538075e+003,1.060691e+002
2.540003e+003,1.108556e+002
2.541932e+003,1.113679e+002
2.543860e+003,1.080707e+002
2.545789e+003,9.962749e+001
2.547717e+003,9.694454e+001
2.549646e+003,1.009755e+002
2.551574e+003,1.040890e+002
2.553502e+003,1.055387e+002
2.555431e+003,1.062298e+002
2.557359e+003,1.061393e+002
2.559288e+003,1.056163e+002
2.561216e+003,1.047374e+002
2.563145e+003,1.030673e+002
2.565073e+003,9.935417e+001
2.567002e+003,9.852704e+001
2.568930e+003,1.024986e+002
2.570859e+003,1.060293e+002
2.572787e+003,1.074763e+002
2.574716e+003,1.090486e+002
2.576644e+003,1.120946e+002
2.578573e+003,1.141138e+002
2.580501e+003,1.149566e+002
2.582429e+003,1.136392e+002
2.584358e+003,1.074375e+002
2.586287e+003,1.038397e+002
2.588215e+003,1.076934e+002
2.590144e+003,1.113741e+002
2.592072e+003,1.118673e+002
2.594000e+003,1.106968e+002
2.595929e+003,1.053282e+002
2.597857e+003,1.029836e+002
2.599786e+003,1.120185e+002
2.601714e+003,1.191285e+002
2.603643e+003,1.144832e+002
2.605571e+003,1.091762e+002
2.607500e+003,1.119239e+002
2.609428e+003,1.151405e+002
2.611357e+003,1.106678e+002
2.613285e+003,1.073870e+002
2.615214e+003,1.157578e+002
2.617142e+003,1.250133e+002
2.619071e+003,1.254899e+002
2.620999e+003,1.228344e+002
2.622927e+003,1.203795e+002
2.624856e+003,1.188555e+002
2.626784e+003,1.203053e+002
2.628713e+003,1.217871e+002
2.630641e+003,1.188097e+002
2.632570e+003,1.150649e+002
2.634498e+003,1.154628e+002
2.636427e+003,1.173829e+002
2.638355e+003,1.167676e+002
2.640284e+003,1.164397e+002
2.642212e+003,1.214606e+002
2.644141e+003,1.279986e+002
2.646069e+003,1.308464e+002
2.647998e+003,1.309050e+002
2.649926e+003,1.290271e+002
2.651854e+003,1.258387e+002
2.653783e+003,1.202238e+002
2.655711e+003,1.156774e+002
2.657640e+003,1.191313e+002
2.659568e+003,1.267531e+002
2.661497e+003,1.331500e+002
2.663425e+003,1.373335e+002
2.665354e+003,1.356840e+002
2.667282e+003,1.311350e+002
2.669211e+003,1.290770e+002
2.671139e+003,1.292746e+002
2.673068e+003,1.320810e+002
2.674996e+003,1.362328e+002
2.676925e+003,1.395003e+002
2.678853e+003,1.417290e+002
2.680781e+003,1.432456e+002
2.682710e+003,1.431590e+002
2.684638e+003,1.356907e+002
2.686567e+003,1.269486e+002
2.688495e+003,1.336321e+002
2.690424e+003,1.471944e+002
2.692352e+003,1.444243e+002
2.694281e+003,1.334143e+002
2.696209e+003,1.363671e+002
2.698138e+003,1.472367e+002
2.700066e+003,1.505885e+002
2.701995e+003,1.495420e+002
2.703923e+003,1.522326e+002
2.705852e+003,1.554954e+002
2.707780e+003,1.492649e+002
2.709708e+003,1.387341e+002
2.711637e+003,1.374907e+002
2.713565e+003,1.421346e+002
2.715494e+003,1.467367e+002
2.717422e+003,1.498073e+002
2.719351e+003,1.463642e+002
2.721279e+003,1.404759e+002
2.723208e+003,1.417313e+002
2.725136e+003,1.466700e+002
2.727065e+003,1.474633e+002
2.728993e+003,1.465048e+002
2.730922e+003,1.509101e+002
2.732850e+003,1.551976e+002
2.734779e+003,1.453885e+002
2.736707e+003,1.316322e+002
2.738635e+003,1.353438e+002
2.740564e+003,1.466332e+002
2.742492e+003,1.470453e+002
2.744421e+003,1.438134e+002
2.746349e+003,1.486136e+002
2.748278e+003,1.563972e+002
2.750206e+003,1.610590e+002
2.752135e+003,1.628515e+002
2.754063e+003,1.599963e+002
2.755992e+003,1.564103e+002
2.757920e+003,1.578530e+002
2.759849e+003,1.611786e+002
2.761777e+003,1.635336e+002
2.763706e+003,1.652463e+002
2.765634e+003,1.677640e+002
2.767563e+003,1.687688e+002
2.769491e+003,1.633619e+002
2.771419e+003,1.577677e+002
2.773348e+003,1.577140e+002
2.775276e+003,1.600499e+002
2.777205e+003,1.638482e+002
2.779133e+003,1.665530e+002
2.781062e+003,1.650732e+002
2.782990e+003,1.626537e+002
2.784919e+003,1.614023e+002
2.786847e+003,1.606235e+002
2.788776e+003,1.590323e+002
2.790704e+003,1.590026e+002
2.792633e+003,1.644413e+002
2.794561e+003,1.685786e+002
2.796490e+003,1.667056e+002
2.798418e+003,1.637685e+002
2.800346e+003,1.576218e+002
2.802275e+003,1.588558e+002
2.804203e+003,1.790404e+002
2.806132e+003,1.975398e+002
2.808060e+003,2.054547e+002
2.809989e+003,2.107795e+002
2.811917e+003,2.158807e+002
2.813846e+003,2.185228e+002
2.815774e+003,2.177237e+002
2.817703e+003,2.150764e+002
2.819631e+003,2.081486e+002
2.821560e+003,2.051827e+002
2.823488e+003,2.112533e+002
2.825417e+003,2.117114e+002
2.827345e+003,2.018503e+002
2.829273e+003,1.981071e+002
2.831202e+003,2.058781e+002
2.833130e+003,2.126812e+002
2.835059e+003,2.172827e+002
2.836987e+003,2.190490e+002
2.838916e+003,2.168542e+002
2.840844e+003,2.203893e+002
2.842773e+003,2.312600e+002
2.844701e+003,2.363543e+002
2.846630e+003,2.336379e+002
2.848558e+003,2.321134e+002
2.850487e+003,2.319340e+002
2.852415e+003,2.300527e+002
2.854344e+003,2.269873e+002
2.856272e+003,2.280735e+002
2.858200e+003,2.330753e+002
2.860129e+003,2.391954e+002
2.862057e+003,2.459261e+002
2.863986e+003,2.488161e+002
2.865914e+003,2.501573e+002
2.867843e+003,2.566132e+002
2.869771e+003,2.681180e+002
2.871700e+003,2.904550e+002
2.873628e+003,3.132432e+002
2.875557e+003,3.126777e+002
2.877485e+003,3.022516e+002
2.879414e+003,3.046401e+002
2.881342e+003,3.075176e+002
2.883271e+003,2.935872e+002
2.885199e+003,2.772390e+002
2.887127e+003,2.708998e+002
2.889056e+003,2.713548e+002
2.890984e+003,2.815063e+002
2.892913e+003,2.895952e+002
2.894841e+003,2.852244e+002
2.896770e+003,2.809428e+002
2.898698e+003,2.822749e+002
2.900627e+003,2.872186e+002
2.902555e+003,2.943680e+002
2.904484e+003,3.059097e+002
2.906412e+003,3.205918e+002
2.908341e+003,3.445957e+002
2.910269e+003,3.773628e+002
2.912198e+003,4.232129e+002
2.914126e+003,4.735940e+002
2.916054e+003,5.649271e+002
2.917983e+003,6.997888e+002
2.919911e+003,8.906982e+002
2.921840e+003,1.157476e+003
2.923768e+003,1.425454e+003
2.925697e+003,1.710696e+003
2.927625e+003,1.808417e+003
2.929554e+003,1.726383e+003
2.931482e+003,1.569467e+003
2.933411e+003,1.359875e+003
2.935339e+003,1.205113e+003
2.937268e+003,1.111205e+003
2.939196e+003,1.121809e+003
2.941125e+003,1.208833e+003
2.943053e+003,1.330529e+003
2.944981e+003,1.458482e+003
2.946910e+003,1.549121e+003
2.948838e+003,1.615602e+003
2.950767e+003,1.688224e+003
2.952695e+003,1.728935e+003
2.954624e+003,1.724803e+003
2.956552e+003,1.652315e+003
2.958481e+003,1.465996e+003
2.960409e+003,1.246696e+003
2.962338e+003,1.008149e+003
2.964266e+003,7.967545e+002
2.966195e+003,6.224762e+002
2.968123e+003,4.912898e+002
2.970052e+003,4.099276e+002
2.971980e+003,3.666921e+002
2.973908e+003,3.657164e+002
2.975837e+003,3.740879e+002
2.977765e+003,3.841535e+002
2.979694e+003,4.407017e+002
2.981622e+003,5.665222e+002
2.983551e+003,6.480479e+002
2.985479e+003,6.849587e+002
2.987408e+003,6.405223e+002
2.989336e+003,5.308692e+002
2.991265e+003,4.377156e+002
2.993193e+003,3.626756e+002
2.995122e+003,3.087552e+002
2.997050e+003,2.718798e+002
2.998979e+003,2.471432e+002
3.000907e+003,2.305613e+002
3.002835e+003,2.170024e+002
3.004764e+003,2.085415e+002
3.006692e+003,2.122237e+002
3.008621e+003,2.147066e+002
3.010549e+003,2.046555e+002
3.012478e+003,1.955806e+002
3.014406e+003,1.966074e+002
3.016335e+003,1.961972e+002
3.018263e+003,1.873576e+002
3.020192e+003,1.832688e+002
3.022120e+003,1.873692e+002
3.024049e+003,1.892691e+002
3.025977e+003,1.862210e+002
3.027906e+003,1.847354e+002
3.029834e+003,1.855118e+002
3.031762e+003,1.827254e+002
3.033691e+003,1.774032e+002
3.035619e+003,1.836966e+002
3.037548e+003,1.968678e+002
3.039476e+003,1.910485e+002
3.041405e+003,1.764879e+002
3.043333e+003,1.815173e+002
3.045262e+003,1.928496e+002
3.047190e+003,1.934093e+002
3.049119e+003,1.889070e+002
3.051047e+003,1.813128e+002
3.052976e+003,1.763481e+002
3.054904e+003,1.793364e+002
3.056833e+003,1.823757e+002
3.058761e+003,1.822944e+002
3.060689e+003,1.807986e+002
3.062618e+003,1.773224e+002
3.064546e+003,1.756148e+002
3.066475e+003,1.765608e+002
3.068403e+003,1.766465e+002
3.070332e+003,1.746576e+002
3.072260e+003,1.766205e+002
3.074189e+003,1.824063e+002
3.076117e+003,1.867540e+002
3.078046e+003,1.881293e+002
3.079974e+003,1.783994e+002
3.081903e+003,1.642717e+002
3.083831e+003,1.597732e+002
3.085760e+003,1.619534e+002
3.087688e+003,1.700078e+002
3.089616e+003,1.784505e+002
3.091545e+003,1.850410e+002
3.093473e+003,1.872150e+002
3.095402e+003,1.791495e+002
3.097330e+003,1.738942e+002
3.099259e+003,1.761586e+002
3.101187e+003,1.786806e+002
3.103116e+003,1.800231e+002
3.105044e+003,1.799628e+002
3.106973e+003,1.782602e+002
3.108901e+003,1.788951e+002
3.110830e+003,1.818635e+002
3.112758e+003,1.818133e+002
3.114687e+003,1.794533e+002
3.116615e+003,1.778076e+002
3.118543e+003,1.772055e+002
3.120472e+003,1.789980e+002
3.122400e+003,1.813006e+002
3.124329e+003,1.810900e+002
3.126257e+003,1.816112e+002
3.128186e+003,1.858446e+002
3.130114e+003,1.906853e+002
3.132043e+003,1.962006e+002
3.133971e+003,1.995221e+002
3.135900e+003,1.989256e+002
3.137828e+003,1.982054e+002
3.139757e+003,1.971684e+002
3.141685e+003,2.010090e+002
3.143614e+003,2.104115e+002
3.145542e+003,2.192333e+002
3.147470e+003,2.274008e+002
3.149399e+003,2.334202e+002
3.151327e+003,2.395972e+002
3.153256e+003,2.503888e+002
3.155184e+003,2.642112e+002
3.157113e+003,2.798627e+002
3.159041e+003,2.964297e+002
3.160970e+003,3.164592e+002
3.162898e+003,3.313618e+002
3.164827e+003,3.339922e+002
3.166755e+003,3.365572e+002
3.168684e+003,3.410396e+002
3.170612e+003,3.472629e+002
3.172541e+003,3.561272e+002
3.174469e+003,3.601415e+002
3.176397e+003,3.594216e+002
3.178326e+003,3.658132e+002
3.180254e+003,3.747243e+002
3.182183e+003,3.698560e+002
3.184111e+003,3.611231e+002
3.186040e+003,3.647803e+002
3.187968e+003,3.725534e+002
3.189897e+003,3.809792e+002
3.191825e+003,3.850463e+002
3.193754e+003,3.773407e+002
3.195682e+003,3.738513e+002
3.197611e+003,3.776012e+002
3.199539e+003,3.883547e+002
3.201468e+003,4.083886e+002
3.203396e+003,4.161046e+002
3.205324e+003,4.108564e+002
3.207253e+003,4.114158e+002
3.209181e+003,4.137388e+002
3.211110e+003,4.041954e+002
3.213038e+003,3.901147e+002
3.214967e+003,3.848186e+002
3.216895e+003,3.776969e+002
3.218824e+003,3.555174e+002
3.220752e+003,3.378822e+002
3.222681e+003,3.429014e+002
3.224609e+003,3.361550e+002
3.226538e+003,3.064668e+002
3.228466e+003,2.924188e+002
3.230395e+003,3.010039e+002
3.232323e+003,2.954252e+002
3.234251e+003,2.769843e+002
3.236180e+003,2.662476e+002
3.238108e+003,2.610234e+002
3.240037e+003,2.570856e+002
3.241965e+003,2.543106e+002
3.243894e+003,2.524629e+002
3.245822e+003,2.520448e+002
3.247751e+003,2.541290e+002
3.249679e+003,2.558651e+002
3.251608e+003,2.561444e+002
3.253536e+003,2.555213e+002
3.255465e+003,2.537289e+002
3.257393e+003,2.552125e+002
3.259322e+003,2.598499e+002
3.261250e+003,2.584759e+002
3.263178e+003,2.550497e+002
3.265107e+003,2.659575e+002
3.267035e+003,2.780973e+002
3.268964e+003,2.749146e+002
3.270892e+003,2.671313e+002
3.272821e+003,2.592364e+002
3.274749e+003,2.546940e+002
3.276678e+003,2.568594e+002
3.278606e+003,2.560388e+002
3.280535e+003,2.503012e+002
3.282463e+003,2.441751e+002
3.284392e+003,2.383235e+002
3.286320e+003,2.386357e+002
3.288249e+003,2.414299e+002
3.290177e+003,2.339585e+002
3.292105e+003,2.267640e+002
3.294034e+003,2.333699e+002
3.295962e+003,2.415077e+002
3.297891e+003,2.462704e+002
3.299819e+003,2.446277e+002
3.301748e+003,2.335033e+002
3.303676e+003,2.283802e+002
3.305605e+003,2.328137e+002
3.307533e+003,2.384901e+002
3.309462e+003,2.440163e+002
3.311390e+003,2.375284e+002
3.313319e+003,2.270674e+002
3.315247e+003,2.265780e+002
3.317176e+003,2.297720e+002
3.319104e+003,2.344409e+002
3.321032e+003,2.344818e+002
3.322961e+003,2.238155e+002
3.324889e+003,2.148617e+002
3.326818e+003,2.096125e+002
3.328746e+003,2.025515e+002
3.330675e+003,1.936328e+002
3.332603e+003,1.887847e+002
3.334532e+003,1.871532e+002
3.336460e+003,1.886948e+002
3.338389e+003,1.890110e+002
3.340317e+003,1.825373e+002
3.342246e+003,1.745864e+002
3.344174e+003,1.670366e+002
3.346103e+003,1.612549e+002
3.348031e+003,1.574942e+002
3.349959e+003,1.563726e+002
3.351888e+003,1.580253e+002
3.353816e+003,1.592052e+002
3.355745e+003,1.590024e+002
3.357673e+003,1.524824e+002
3.359602e+003,1.460917e+002
3.361530e+003,1.498109e+002
3.363459e+003,1.556124e+002
3.365387e+003,1.623317e+002
3.367316e+003,1.624785e+002
3.369244e+003,1.497767e+002
3.371173e+003,1.485309e+002
3.373101e+003,1.596659e+002
3.375030e+003,1.609977e+002
3.376958e+003,1.560533e+002
3.378886e+003,1.564761e+002
3.380815e+003,1.633903e+002
3.382743e+003,1.801566e+002
3.384672e+003,1.994517e+002
3.386600e+003,2.207270e+002
3.388529e+003,2.335745e+002
3.390457e+003,2.314308e+002
3.392386e+003,2.493707e+002
3.394314e+003,2.900147e+002
3.396243e+003,3.125672e+002
3.398171e+003,3.211603e+002
3.400100e+003,3.284887e+002
3.402028e+003,3.287515e+002
3.403957e+003,3.091938e+002
3.405885e+003,2.909004e+002
3.407813e+003,2.868045e+002
3.409742e+003,2.750963e+002
3.411670e+003,2.511710e+002
3.413599e+003,2.254840e+002
3.415527e+003,1.998783e+002
3.417456e+003,1.832958e+002
3.419384e+003,1.712573e+002
3.421313e+003,1.546404e+002
3.423241e+003,1.388367e+002
3.425170e+003,1.265357e+002
3.427098e+003,1.189130e+002
3.429027e+003,1.173425e+002
3.430955e+003,1.156373e+002
3.432884e+003,1.130800e+002
3.434812e+003,1.086618e+002
3.436740e+003,1.037195e+002
3.438669e+003,1.043892e+002
3.440597e+003,1.061776e+002
3.442526e+003,1.046801e+002
3.444454e+003,1.016857e+002
3.446383e+003,9.804787e+001
3.448311e+003,9.282338e+001
3.450240e+003,8.450346e+001
3.452168e+003,8.126818e+001
3.454097e+003,8.255061e+001
3.456025e+003,8.510163e+001
3.457954e+003,8.812276e+001
3.459882e+003,9.146042e+001
3.461811e+003,9.329922e+001
3.463739e+003,9.289410e+001
3.465667e+003,9.048608e+001
3.467596e+003,8.414116e+001
3.469524e+003,8.210635e+001
3.471453e+003,8.371224e+001
3.473381e+003,8.067690e+001
3.475310e+003,7.701370e+001
3.477238e+003,8.384957e+001
3.479167e+003,9.066660e+001
3.481095e+003,8.685032e+001
3.483024e+003,8.665029e+001
3.484952e+003,9.638091e+001
3.486881e+003,1.015982e+002
3.488809e+003,1.011978e+002
3.490738e+003,9.662208e+001
3.492666e+003,8.987609e+001
3.494594e+003,8.283408e+001
3.496523e+003,8.019386e+001
3.498451e+003,9.412359e+001
3.500380e+003,9.585155e+001
3.502308e+003,7.323338e+001
3.504237e+003,6.670459e+001
3.506165e+003,8.134106e+001
3.508094e+003,8.047767e+001
3.510022e+003,7.243154e+001
3.511951e+003,8.069688e+001
3.513879e+003,8.872089e+001
3.515808e+003,7.843811e+001
3.517736e+003,7.126584e+001
3.519665e+003,7.349557e+001
3.521593e+003,7.594577e+001
3.523521e+003,7.763893e+001
3.525450e+003,7.931028e+001
3.527378e+003,8.036375e+001
3.529307e+003,7.897741e+001
3.531235e+003,7.766732e+001
3.533164e+003,7.853483e+001
3.535092e+003,7.965638e+001
3.537021e+003,8.128439e+001
3.538949e+003,7.951407e+001
3.540878e+003,7.491221e+001
3.542806e+003,7.435414e+001
3.544735e+003,7.421288e+001
3.546663e+003,6.387165e+001
3.548592e+003,5.908713e+001
3.550520e+003,7.356437e+001
3.552448e+003,8.079791e+001
3.554377e+003,7.243938e+001
3.556305e+003,7.150478e+001
3.558234e+003,7.592301e+001
3.560162e+003,7.314745e+001
3.562091e+003,6.870912e+001
3.564019e+003,7.036022e+001
3.565948e+003,7.211796e+001
3.567876e+003,7.006242e+001
3.569805e+003,7.029653e+001
3.571733e+003,7.324799e+001
3.573662e+003,8.061637e+001
3.575590e+003,8.786982e+001
3.577519e+003,7.960543e+001
3.579447e+003,6.957076e+001
3.581376e+003,6.825939e+001
3.583304e+003,7.043107e+001
3.585233e+003,7.581096e+001
3.587161e+003,7.750098e+001
3.589090e+003,7.558022e+001
3.591018e+003,7.617882e+001
3.592947e+003,7.712853e+001
3.594875e+003,7.540511e+001
3.596803e+003,7.210455e+001
3.598732e+003,6.522268e+001
3.600660e+003,6.335361e+001
3.602589e+003,6.737999e+001
3.604517e+003,7.367995e+001
3.606446e+003,7.681118e+001
3.608374e+003,4.847472e+001
3.610303e+003,2.587067e+001
3.612231e+003,4.927080e+001
3.614160e+003,6.869047e+001
3.616088e+003,7.218584e+001
3.618017e+003,7.471558e+001
3.619945e+003,7.734731e+001
3.621874e+003,7.690634e+001
3.623802e+003,7.602291e+001
3.625730e+003,8.008380e+001
3.627659e+003,8.054012e+001
3.629587e+003,7.104593e+001
3.631516e+003,6.913764e+001
3.633444e+003,7.684703e+001
3.635373e+003,6.849942e+001
3.637301e+003,5.555114e+001
3.639230e+003,6.564098e+001
3.641158e+003,7.522059e+001
3.643087e+003,6.377636e+001
3.645015e+003,5.981834e+001
3.646944e+003,6.781037e+001
3.648872e+003,7.163329e+001
3.650801e+003,7.154633e+001
3.652729e+003,6.696183e+001
3.654657e+003,6.513253e+001
3.656586e+003,7.696910e+001
3.658514e+003,8.340118e+001
3.660443e+003,7.999337e+001
3.662371e+003,7.447796e+001
3.664300e+003,6.864400e+001
3.666228e+003,6.979109e+001
3.668157e+003,7.149822e+001
3.670085e+003,6.571758e+001
3.672014e+003,6.061719e+001
3.673942e+003,5.743132e+001
3.675871e+003,6.540937e+001
3.677799e+003,8.199804e+001
3.679728e+003,8.107696e+001
3.681656e+003,7.453728e+001
3.683584e+003,7.790072e+001
3.685513e+003,7.857549e+001
3.687441e+003,7.083572e+001
3.689370e+003,6.903664e+001
3.691298e+003,7.404045e+001
3.693227e+003,7.924674e+001
3.695155e+003,8.139844e+001
3.697084e+003,7.232303e+001
3.699012e+003,6.768758e+001
3.700941e+003,7.596382e+001
3.702869e+003,7.774361e+001
3.704798e+003,7.168787e+001
3.706726e+003,7.234489e+001
3.708655e+003,7.542298e+001
3.710583e+003,7.478107e+001
3.712511e+003,7.392764e+001
3.714440e+003,7.457961e+001
3.716368e+003,7.403871e+001
3.718297e+003,7.223934e+001
3.720225e+003,7.260732e+001
3.722154e+003,7.425675e+001
3.724082e+003,7.773363e+001
3.726011e+003,7.801126e+001
3.727939e+003,7.157784e+001
3.729868e+003,6.840601e+001
3.731796e+003,6.887337e+001
3.733725e+003,6.596867e+001
3.735653e+003,6.184660e+001
3.737582e+003,5.689196e+001
3.739510e+003,5.709306e+001
3.741438e+003,6.616703e+001
3.743367e+003,7.454058e+001
3.745295e+003,8.070517e+001
3.747224e+003,8.045077e+001
3.749152e+003,7.624720e+001
3.751081e+003,6.810389e+001
3.753009e+003,6.403621e+001
3.754938e+003,6.749540e+001
3.756866e+003,6.932581e+001
3.758795e+003,6.902420e+001
3.760723e+003,6.518974e+001
3.762652e+003,6.312730e+001
3.764580e+003,6.884167e+001
3.766509e+003,7.491335e+001
3.768437e+003,8.046193e+001
3.770365e+003,7.536778e+001
3.772294e+003,6.460528e+001
3.774222e+003,6.437405e+001
3.776151e+003,6.721537e+001
3.778079e+003,6.904572e+001
3.780008e+003,6.850701e+001
3.781936e+003,6.547107e+001
3.783865e+003,6.257817e+001
3.785793e+003,6.127314e+001
3.787722e+003,6.718266e+001
3.789650e+003,7.061109e+001
3.791579e+003,6.476108e+001
3.793507e+003,6.186363e+001
3.795436e+003,6.270141e+001
3.797364e+003,6.217662e+001
3.799292e+003,6.300165e+001
3.801221e+003,7.221835e+001
3.803149e+003,7.812099e+001
3.805078e+003,7.601496e+001
3.807006e+003,7.146259e+001
3.808935e+003,6.655959e+001
3.810863e+003,7.010424e+001
3.812792e+003,7.478973e+001
3.814720e+003,7.349978e+001
3.816649e+003,7.378019e+001
3.818577e+003,7.796480e+001
3.820506e+003,7.805775e+001
3.822434e+003,7.425332e+001
3.824363e+003,6.257197e+001
3.826291e+003,5.757029e+001
3.828219e+003,6.955410e+001
3.830148e+003,7.384267e+001
3.832076e+003,6.849287e+001
3.834005e+003,6.645792e+001
3.835933e+003,6.615866e+001
3.837862e+003,6.607764e+001
3.839790e+003,6.595483e+001
3.841719e+003,6.547371e+001
3.843647e+003,7.012136e+001
3.845576e+003,7.672179e+001
3.847504e+003,7.460160e+001
3.849433e+003,6.990972e+001
3.851361e+003,6.493512e+001
3.853290e+003,6.232084e+001
3.855218e+003,6.232006e+001
3.857146e+003,6.743298e+001
3.859075e+003,7.038541e+001
3.861003e+003,5.686731e+001
3.862932e+003,4.857800e+001
3.864860e+003,5.477429e+001
3.866789e+003,5.877709e+001
3.868717e+003,6.231500e+001
3.870646e+003,7.730556e+001
3.872574e+003,8.483405e+001
3.874503e+003,6.873619e+001
3.876431e+003,6.238039e+001
3.878360e+003,6.864208e+001
3.880288e+003,6.694946e+001
3.882217e+003,6.333203e+001
3.884145e+003,6.680884e+001
3.886073e+003,6.826038e+001
3.888002e+003,6.467709e+001
3.889930e+003,6.198164e+001
3.891859e+003,6.076883e+001
3.893787e+003,6.228881e+001
3.895716e+003,6.475981e+001
3.897644e+003,6.719898e+001
3.899573e+003,7.147720e+001
3.901501e+003,7.669101e+001
3.903430e+003,7.158765e+001
3.905358e+003,6.535294e+001
3.907287e+003,6.793542e+001
3.909215e+003,7.022315e+001
3.911144e+003,7.055009e+001
3.913072e+003,6.608883e+001
3.915000e+003,6.126522e+001
3.916929e+003,6.518391e+001
3.918857e+003,6.912953e+001
3.920786e+003,7.085670e+001
3.922714e+003,6.380643e+001
3.924643e+003,5.300171e+001
3.926571e+003,5.521345e+001
3.928500e+003,6.164203e+001
3.930428e+003,6.890369e+001
3.932357e+003,6.971763e+001
3.934285e+003,6.490424e+001
3.936214e+003,6.572832e+001
3.938142e+003,6.891216e+001
3.940071e+003,7.319558e+001
3.941999e+003,7.302594e+001
3.943927e+003,6.654208e+001
3.945856e+003,6.495215e+001
3.947784e+003,6.482795e+001
3.949713e+003,5.858157e+001
3.951641e+003,5.805325e+001
3.953570e+003,6.704525e+001
3.955498e+003,6.968027e+001
3.957427e+003,6.804085e+001
3.959355e+003,6.982594e+001
3.961284e+003,7.031107e+001
3.963212e+003,6.659613e+001
3.965141e+003,6.119911e+001
3.967069e+003,5.606300e+001
3.968998e+003,5.946764e+001
3.970926e+003,6.424415e+001
3.972854e+003,6.607948e+001
3.974783e+003,6.474017e+001
3.976711e+003,6.143217e+001
3.978640e+003,6.698516e+001
3.980568e+003,7.120924e+001
3.982497e+003,6.150135e+001
3.984425e+003,5.717151e+001
3.986354e+003,6.208869e+001
3.988282e+003,6.395967e+001
3.990211e+003,6.448112e+001
3.992139e+003,6.552547e+001
3.994068e+003,6.679829e+001
3.995996e+003,6.821191e+001
3.997925e+003,6.768375e+001
3.999853e+003,6.653654e+001
4.001781e+003,6.726974e+001
4.003710e+003,6.802560e+001
4.005638e+003,6.858382e+001
4.007567e+003,6.276109e+001
4.009495e+003,5.591092e+001
4.011424e+003,6.326646e+001
4.013352e+003,6.850020e+001
4.015281e+003,6.222674e+001
4.017209e+003,5.896548e+001
4.019138e+003,5.824411e+001
4.021066e+003,5.701164e+001
4.022995e+003,6.032826e+001
4.024923e+003,7.221110e+001
4.026852e+003,7.181471e+001
4.028780e+003,6.297739e+001
4.030708e+003,6.360486e+001
4.032637e+003,6.479338e+001
4.034565e+003,6.069563e+001
4.036494e+003,6.356094e+001
4.038422e+003,7.083559e+001
4.040351e+003,6.626842e+001
4.042279e+003,6.133136e+001
4.044208e+003,6.389465e+001
4.046136e+003,6.729988e+001
4.048065e+003,7.044656e+001
4.049993e+003,7.111753e+001
4.051922e+003,6.979719e+001
4.053850e+003,6.598157e+001
4.055779e+003,6.555502e+001
4.057707e+003,6.779632e+001
4.059635e+003,6.552637e+001
4.061564e+003,6.394318e+001
4.063492e+003,6.723592e+001
4.065421e+003,6.828436e+001
4.067349e+003,6.656017e+001
4.069278e+003,6.295576e+001
4.071206e+003,5.882510e+001
4.073135e+003,5.320057e+001
4.075063e+003,5.454940e+001
4.076992e+003,6.064759e+001
4.078920e+003,5.642384e+001
4.080849e+003,5.297305e+001
4.082777e+003,5.883452e+001
4.084706e+003,6.178687e+001
4.086634e+003,6.165624e+001
4.088563e+003,6.073581e+001
4.090491e+003,6.207788e+001
4.092419e+003,6.861761e+001
4.094348e+003,6.853233e+001
4.096276e+003,6.325790e+001
4.098205e+003,6.072905e+001
4.100133e+003,6.112319e+001
4.102062e+003,6.633353e+001
4.103990e+003,6.545824e+001
4.105919e+003,6.057518e+001
4.107847e+003,6.110467e+001
4.109776e+003,6.153155e+001
4.111704e+003,5.751867e+001
4.113633e+003,5.757991e+001
4.115561e+003,6.052696e+001
4.117490e+003,6.452778e+001
4.119418e+003,6.600957e+001
4.121347e+003,6.361231e+001
4.123275e+003,5.716143e+001
4.125204e+003,5.077390e+001
4.127132e+003,5.150781e+001
4.129061e+003,5.752245e+001
4.130989e+003,6.816617e+001
4.132917e+003,6.896909e+001
4.134846e+003,6.486344e+001
4.136774e+003,6.385413e+001
4.138703e+003,6.137430e+001
4.140631e+003,5.614380e+001
4.142560e+003,5.768985e+001
4.144488e+003,6.285846e+001
4.146417e+003,7.164140e+001
4.148345e+003,7.121780e+001
4.150273e+003,6.015543e+001
4.152202e+003,5.930159e+001
4.154130e+003,6.107981e+001
4.156059e+003,5.763305e+001
4.157987e+003,5.828902e+001
4.159916e+003,6.247115e+001
4.161844e+003,6.207034e+001
4.163773e+003,5.837003e+001
4.165701e+003,5.022920e+001
4.167630e+003,4.597776e+001
4.169558e+003,4.572443e+001
4.171487e+003,4.855959e+001
4.173415e+003,5.276217e+001
4.175344e+003,5.782876e+001
4.177272e+003,6.076980e+001
4.179201e+003,6.163350e+001
4.181129e+003,6.086310e+001
4.183058e+003,5.806319e+001
4.184986e+003,5.338974e+001
4.186915e+003,5.222625e+001
4.188843e+003,5.415688e+001
4.190771e+003,5.962089e+001
4.192700e+003,6.480276e+001
4.194628e+003,6.846177e+001
4.196557e+003,5.925018e+001
4.198485e+003,5.100955e+001
4.200414e+003,5.558467e+001
4.202342e+003,5.602100e+001
4.204271e+003,5.286349e+001
4.206199e+003,5.867183e+001
4.208127e+003,6.111454e+001
4.210056e+003,5.168919e+001
4.211984e+003,5.561126e+001
4.213913e+003,6.539588e+001
4.215841e+003,6.437182e+001
4.217770e+003,6.002950e+001
4.219698e+003,5.379872e+001
4.221627e+003,5.104053e+001
4.223555e+003,5.201562e+001
4.225484e+003,6.068491e+001
4.227412e+003,6.310331e+001
4.229341e+003,5.864324e+001
4.231269e+003,5.457070e+001
4.233198e+003,5.376154e+001
4.235126e+003,6.085352e+001
4.237055e+003,6.356236e+001
4.238983e+003,6.247945e+001
4.240912e+003,5.847046e+001
4.242840e+003,5.739061e+001
4.244769e+003,6.200716e+001
4.246697e+003,5.646499e+001
4.248625e+003,5.146468e+001
4.250554e+003,5.803767e+001
