1.159199e+002,4.885567e+002
1.178484e+002,5.429872e+002
1.197769e+002,5.767278e+002
1.217053e+002,5.879969e+002
1.236338e+002,5.956435e+002
1.255623e+002,5.971654e+002
1.274907e+002,5.969531e+002
1.294192e+002,5.995019e+002
1.313477e+002,6.119567e+002
1.332761e+002,6.176718e+002
1.352046e+002,6.133836e+002
1.371331e+002,5.984796e+002
1.390615e+002,5.691789e+002
1.409900e+002,5.099981e+002
1.429185e+002,4.357571e+002
1.448469e+002,3.735898e+002
1.467754e+002,3.280499e+002
1.487039e+002,2.907975e+002
1.506323e+002,2.614731e+002
1.525608e+002,2.407419e+002
1.544893e+002,2.205078e+002
1.564177e+002,1.979112e+002
1.583462e+002,1.743116e+002
1.602747e+002,1.564606e+002
1.622031e+002,1.462090e+002
1.641316e+002,1.389851e+002
1.660601e+002,1.321021e+002
1.679885e+002,1.254937e+002
1.699170e+002,1.193316e+002
1.718455e+002,1.137236e+002
1.737739e+002,1.085975e+002
1.757024e+002,1.030976e+002
1.776309e+002,9.573672e+001
1.795593e+002,8.874432e+001
1.814878e+002,8.397131e+001
1.834163e+002,8.230544e+001
1.853447e+002,8.189839e+001
1.872732e+002,8.273486e+001
1.892017e+002,8.472903e+001
1.911301e+002,8.746024e+001
1.930586e+002,9.190981e+001
1.949871e+002,9.685517e+001
1.969155e+002,1.006493e+002
1.988440e+002,1.035614e+002
2.007725e+002,1.054145e+002
2.027009e+002,1.069660e+002
2.046294e+002,1.088540e+002
2.065579e+002,1.061861e+002
2.084864e+002,9.564922e+001
2.104148e+002,8.042747e+001
2.123433e+002,6.756588e+001
2.142718e+002,5.712302e+001
2.162002e+002,4.867794e+001
2.181287e+002,4.201583e+001
2.200572e+002,3.782137e+001
2.219856e+002,3.383490e+001
2.239141e+002,2.943974e+001
2.258426e+002,2.518074e+001
2.277710e+002,2.207894e+001
2.296995e+002,2.045490e+001
2.316280e+002,1.976505e+001
2.335564e+002,1.973800e+001
2.354849e+002,2.165456e+001
2.374134e+002,2.249082e+001
2.393418e+002,2.149700e+001
2.412703e+002,1.937247e+001
2.431988e+002,1.769333e+001
2.451272e+002,1.671606e+001
2.470557e+002,1.613106e+001
2.489842e+002,1.590661e+001
2.509126e+002,1.630394e+001
2.528411e+002,1.650112e+001
2.547696e+002,1.622128e+001
2.566980e+002,1.564197e+001
2.586265e+002,1.520895e+001
2.605550e+002,1.567548e+001
2.624834e+002,1.578719e+001
2.644119e+002,1.433328e+001
2.663404e+002,1.059442e+001
2.682688e+002,8.223785e+000
2.701973e+002,9.305737e+000
2.721258e+002,1.286301e+001
2.740542e+002,1.458394e+001
2.759827e+002,1.344083e+001
2.779112e+002,1.138644e+001
2.798396e+002,8.905839e+000
2.817681e+002,5.548413e+000
2.836966e+002,3.868959e+000
2.856250e+002,5.307140e+000
2.875535e+002,9.048048e+000
2.894820e+002,1.181245e+001
2.914104e+002,1.306365e+001
2.933389e+002,1.398773e+001
2.952674e+002,1.493097e+001
2.971958e+002,1.567129e+001
2.991243e+002,1.736139e+001
3.010528e+002,2.046828e+001
3.029813e+002,2.464180e+001
3.049097e+002,2.895004e+001
3.068382e+002,3.589721e+001
3.087667e+002,4.023825e+001
3.106951e+002,3.880052e+001
3.126236e+002,2.882177e+001
3.145521e+002,2.200471e+001
3.164805e+002,2.185573e+001
3.184090e+002,2.526016e+001
3.203375e+002,2.544303e+001
3.222659e+002,1.999673e+001
3.241944e+002,1.486996e+001
3.261229e+002,1.224563e+001
3.280513e+002,1.294953e+001
3.299798e+002,1.441599e+001
3.319083e+002,1.698117e+001
3.338367e+002,2.015757e+001
3.357652e+002,2.334446e+001
3.376937e+002,2.693120e+001
3.396221e+002,2.978225e+001
3.415506e+002,3.127382e+001
3.434791e+002,3.093909e+001
3.454075e+002,3.155061e+001
3.473360e+002,3.405431e+001
3.492645e+002,3.696776e+001
3.511929e+002,3.926279e+001
3.531214e+002,4.150444e+001
3.550499e+002,4.186398e+001
3.569783e+002,3.911552e+001
3.589068e+002,3.333012e+001
3.608353e+002,2.906249e+001
3.627637e+002,2.756479e+001
3.646922e+002,2.663034e+001
3.666207e+002,2.498419e+001
3.685491e+002,2.238427e+001
3.704776e+002,1.950634e+001
3.724061e+002,1.555611e+001
3.743345e+002,1.130430e+001
3.762630e+002,9.297318e+000
3.781915e+002,1.123283e+001
3.801199e+002,1.348412e+001
3.820484e+002,1.430886e+001
3.839769e+002,1.288379e+001
3.859053e+002,1.193715e+001
3.878338e+002,1.188661e+001
3.897623e+002,1.230442e+001
3.916907e+002,1.240235e+001
3.936192e+002,1.169797e+001
3.955477e+002,1.152061e+001
3.974761e+002,1.266129e+001
3.994046e+002,1.559245e+001
4.013331e+002,1.697041e+001
4.032615e+002,1.497374e+001
4.051900e+002,1.268484e+001
4.071185e+002,1.299407e+001
4.090469e+002,1.717792e+001
4.109754e+002,2.008558e+001
4.129039e+002,1.950894e+001
4.148323e+002,1.620705e+001
4.167608e+002,1.508186e+001
4.186893e+002,1.880140e+001
4.206177e+002,2.216434e+001
4.225462e+002,2.235312e+001
4.244747e+002,1.886343e+001
4.264032e+002,1.604806e+001
4.283316e+002,1.523563e+001
4.302601e+002,1.532682e+001
4.321886e+002,1.427876e+001
4.341170e+002,1.030868e+001
4.360455e+002,8.027292e+000
4.379740e+002,9.789070e+000
4.399024e+002,1.514963e+001
4.418309e+002,1.999379e+001
4.437594e+002,2.216873e+001
4.456878e+002,2.491619e+001
4.476163e+002,3.122192e+001
4.495448e+002,4.201709e+001
4.514732e+002,5.226024e+001
4.534017e+002,6.232876e+001
4.553302e+002,7.112197e+001
4.572586e+002,7.530615e+001
4.591871e+002,7.294379e+001
4.611156e+002,6.773589e+001
4.630440e+002,5.894034e+001
4.649725e+002,4.670089e+001
4.669010e+002,3.667799e+001
4.688294e+002,3.077709e+001
4.707579e+002,2.677514e+001
4.726864e+002,2.291438e+001
4.746148e+002,1.764293e+001
4.765433e+002,1.454275e+001
4.784718e+002,1.484128e+001
4.804002e+002,1.767458e+001
4.823287e+002,2.055121e+001
4.842572e+002,2.435297e+001
4.861856e+002,2.687237e+001
4.881141e+002,2.715923e+001
4.900426e+002,2.458014e+001
4.919710e+002,2.172372e+001
4.938995e+002,1.650612e+001
4.958280e+002,1.228243e+001
4.977564e+002,1.244111e+001
4.996849e+002,1.876704e+001
5.016134e+002,2.409263e+001
5.035418e+002,2.626302e+001
5.054703e+002,2.598368e+001
5.073988e+002,2.612098e+001
5.093272e+002,2.614860e+001
5.112557e+002,2.698693e+001
5.131842e+002,3.007393e+001
5.151127e+002,3.526060e+001
5.170411e+002,3.795671e+001
5.189696e+002,3.593925e+001
5.208981e+002,3.206858e+001
5.228265e+002,2.839108e+001
5.247550e+002,2.498935e+001
5.266835e+002,2.162060e+001
5.286119e+002,1.747158e+001
5.305404e+002,1.345973e+001
5.324689e+002,1.118462e+001
5.343973e+002,1.150490e+001
5.363258e+002,1.286441e+001
5.382543e+002,1.586061e+001
5.401827e+002,2.066890e+001
5.421112e+002,2.235472e+001
5.440397e+002,1.745679e+001
5.459681e+002,1.210037e+001
5.478966e+002,9.791376e+000
5.498251e+002,1.113523e+001
5.517535e+002,1.369480e+001
5.536820e+002,1.912874e+001
5.556105e+002,2.489511e+001
5.575389e+002,2.642183e+001
5.594674e+002,2.172727e+001
5.613959e+002,1.762157e+001
5.633243e+002,1.724318e+001
5.652528e+002,1.951128e+001
5.671813e+002,1.973331e+001
5.691097e+002,1.438371e+001
5.710382e+002,9.869990e+000
5.729667e+002,9.662150e+000
5.748951e+002,1.426919e+001
5.768236e+002,1.689187e+001
5.787521e+002,1.355252e+001
5.806805e+002,1.021727e+001
5.826090e+002,1.180272e+001
5.845375e+002,2.189233e+001
5.864659e+002,3.021277e+001
5.883944e+002,3.426629e+001
5.903229e+002,3.615740e+001
5.922513e+002,4.058020e+001
5.941798e+002,5.044510e+001
5.961083e+002,5.700881e+001
5.980367e+002,5.501130e+001
5.999652e+002,4.553990e+001
6.018937e+002,4.068357e+001
6.038221e+002,4.184385e+001
6.057506e+002,4.605941e+001
6.076791e+002,5.510033e+001
6.096075e+002,6.903477e+001
6.115360e+002,7.601831e+001
6.134645e+002,6.992716e+001
6.153929e+002,5.918853e+001
6.173214e+002,4.991347e+001
6.192499e+002,4.301941e+001
6.211783e+002,3.605259e+001
6.231068e+002,2.730857e+001
6.250353e+002,1.895381e+001
6.269637e+002,1.440535e+001
6.288922e+002,1.453767e+001
6.308207e+002,1.582053e+001
6.327491e+002,1.801287e+001
6.346776e+002,2.066306e+001
6.366061e+002,2.167493e+001
6.385345e+002,1.965716e+001
6.404630e+002,1.736556e+001
6.423915e+002,1.517980e+001
6.443199e+002,1.323749e+001
6.462484e+002,1.246938e+001
6.481769e+002,1.287693e+001
6.501053e+002,1.471911e+001
6.520338e+002,1.862605e+001
6.539623e+002,2.641194e+001
6.558907e+002,3.091793e+001
6.578192e+002,2.953245e+001
6.597477e+002,2.657700e+001
6.616761e+002,2.669200e+001
6.636046e+002,3.076669e+001
6.655331e+002,3.290108e+001
6.674615e+002,2.815104e+001
6.693900e+002,2.167509e+001
6.713185e+002,2.029490e+001
6.732469e+002,3.262238e+001
6.751754e+002,4.019099e+001
6.771039e+002,3.753508e+001
6.790323e+002,2.856436e+001
6.809608e+002,2.442149e+001
6.828893e+002,2.816365e+001
6.848177e+002,3.160460e+001
6.867462e+002,3.072469e+001
6.886747e+002,2.581851e+001
6.906031e+002,2.389101e+001
6.925316e+002,2.975976e+001
6.944601e+002,3.396102e+001
6.963885e+002,3.095626e+001
6.983170e+002,2.124665e+001
7.002455e+002,1.403648e+001
7.021740e+002,1.053830e+001
7.041024e+002,9.733493e+000
7.060309e+002,1.163197e+001
7.079594e+002,1.799938e+001
7.098878e+002,2.126059e+001
7.118163e+002,1.812514e+001
7.137448e+002,1.399313e+001
7.156732e+002,1.451439e+001
7.176017e+002,2.048766e+001
7.195302e+002,2.450605e+001
7.214586e+002,2.256820e+001
7.233871e+002,1.915567e+001
7.253156e+002,1.859370e+001
7.272440e+002,2.080147e+001
7.291725e+002,2.642861e+001
7.311010e+002,3.962733e+001
7.330294e+002,5.519462e+001
7.349579e+002,6.389139e+001
7.368864e+002,6.485216e+001
7.388149e+002,6.216071e+001
7.407433e+002,5.440452e+001
7.426718e+002,4.394896e+001
7.446003e+002,3.605767e+001
7.465287e+002,3.318307e+001
7.484572e+002,3.025416e+001
7.503857e+002,2.540788e+001
7.523141e+002,1.959568e+001
7.542426e+002,1.672812e+001
7.561711e+002,1.874918e+001
7.580995e+002,2.060437e+001
7.600280e+002,1.958444e+001
7.619565e+002,1.639049e+001
7.638849e+002,1.481815e+001
7.658134e+002,1.502741e+001
7.677419e+002,1.704828e+001
7.696703e+002,2.203073e+001
7.715988e+002,2.993694e+001
7.735273e+002,3.574113e+001
7.754557e+002,3.963398e+001
7.773842e+002,4.116806e+001
7.793127e+002,3.910221e+001
7.812411e+002,3.376492e+001
7.831696e+002,2.990707e+001
7.850981e+002,2.853438e+001
7.870266e+002,2.834303e+001
7.889550e+002,2.902362e+001
7.908835e+002,3.074315e+001
7.928120e+002,3.255375e+001
7.947404e+002,3.180965e+001
7.966689e+002,3.343400e+001
7.985974e+002,4.063069e+001
8.005258e+002,5.334380e+001
8.024543e+002,6.736459e+001
8.043828e+002,8.481651e+001
8.063112e+002,1.011805e+002
8.082397e+002,1.138473e+002
8.101682e+002,1.219202e+002
8.120966e+002,1.281614e+002
8.140251e+002,1.312825e+002
8.159536e+002,1.335340e+002
8.178820e+002,1.378960e+002
8.198105e+002,1.447604e+002
8.217390e+002,1.463102e+002
8.236674e+002,1.393852e+002
8.255959e+002,1.277916e+002
8.275244e+002,1.124965e+002
8.294528e+002,9.040170e+001
8.313813e+002,7.251066e+001
8.333098e+002,5.830329e+001
8.352382e+002,4.829910e+001
8.371667e+002,4.427763e+001
8.390952e+002,4.623450e+001
8.410236e+002,4.794503e+001
8.429521e+002,4.859460e+001
8.448806e+002,4.824115e+001
8.468090e+002,4.690758e+001
8.487375e+002,4.453078e+001
8.506660e+002,4.120008e+001
8.525944e+002,3.557490e+001
8.545229e+002,3.003881e+001
8.564514e+002,2.639592e+001
8.583798e+002,2.459940e+001
8.603083e+002,2.405429e+001
8.622368e+002,2.556819e+001
8.641652e+002,2.759450e+001
8.660937e+002,2.948287e+001
8.680222e+002,3.161251e+001
8.699506e+002,3.167981e+001
8.718791e+002,2.829231e+001
8.738076e+002,2.401395e+001
8.757360e+002,2.000554e+001
8.776645e+002,1.613599e+001
8.795930e+002,1.405180e+001
8.815214e+002,1.499152e+001
8.834499e+002,1.676657e+001
8.853784e+002,1.848841e+001
8.873068e+002,2.019748e+001
8.892353e+002,2.063898e+001
8.911638e+002,1.612278e+001
8.930922e+002,1.344244e+001
8.950207e+002,1.721335e+001
8.969492e+002,2.864651e+001
8.988776e+002,3.581044e+001
9.008061e+002,3.680664e+001
9.027346e+002,3.553708e+001
9.046630e+002,3.322713e+001
9.065915e+002,3.007879e+001
9.085200e+002,2.665110e+001
9.104484e+002,2.153975e+001
9.123769e+002,1.818731e+001
9.143054e+002,1.909574e+001
9.162338e+002,2.397396e+001
9.181623e+002,2.589377e+001
9.200908e+002,2.193489e+001
9.220192e+002,1.853651e+001
9.239477e+002,1.843327e+001
9.258762e+002,2.061060e+001
9.278046e+002,2.114911e+001
9.297331e+002,1.823391e+001
9.316616e+002,1.684565e+001
9.335900e+002,1.988037e+001
9.355185e+002,2.584499e+001
9.374470e+002,3.065945e+001
9.393754e+002,3.554372e+001
9.413039e+002,3.739527e+001
9.432324e+002,3.307884e+001
9.451608e+002,2.599979e+001
9.470893e+002,2.357522e+001
9.490178e+002,2.803460e+001
9.509462e+002,3.035768e+001
9.528747e+002,2.461084e+001
9.548032e+002,1.751083e+001
9.567316e+002,1.763641e+001
9.586601e+002,2.845202e+001
9.605886e+002,3.465234e+001
9.625170e+002,2.811956e+001
9.644455e+002,1.965274e+001
9.663740e+002,1.900305e+001
9.683024e+002,3.002167e+001
9.702309e+002,3.980604e+001
9.721594e+002,4.439294e+001
9.740878e+002,5.081554e+001
9.760163e+002,6.261521e+001
9.779448e+002,7.955761e+001
9.798733e+002,1.053495e+002
9.818018e+002,1.416877e+002
9.837302e+002,1.863552e+002
9.856587e+002,2.408054e+002
9.875872e+002,3.050739e+002
9.895156e+002,3.640306e+002
9.914441e+002,4.440715e+002
9.933726e+002,4.899600e+002
9.953010e+002,4.756518e+002
9.972295e+002,4.108988e+002
9.991580e+002,3.345619e+002
1.001086e+003,2.328439e+002
1.003015e+003,1.479750e+002
1.004943e+003,9.951662e+001
1.006872e+003,7.559660e+001
1.008800e+003,6.001526e+001
1.010729e+003,5.337047e+001
1.012657e+003,5.380181e+001
1.014586e+003,6.362650e+001
1.016514e+003,7.797643e+001
1.018443e+003,9.191995e+001
1.020371e+003,1.056217e+002
1.022300e+003,1.183560e+002
1.024228e+003,1.379814e+002
1.026156e+003,1.504234e+002
1.028085e+003,1.419687e+002
1.030013e+003,1.149054e+002
1.031942e+003,8.875201e+001
1.033870e+003,6.280008e+001
1.035799e+003,4.260677e+001
1.037727e+003,3.202544e+001
1.039656e+003,3.033146e+001
1.041584e+003,2.749375e+001
1.043513e+003,2.035718e+001
1.045441e+003,1.580287e+001
1.047370e+003,1.677882e+001
1.049298e+003,2.119633e+001
1.051227e+003,2.428884e+001
1.053155e+003,2.598477e+001
1.055083e+003,2.684302e+001
1.057012e+003,2.603922e+001
1.058940e+003,2.502680e+001
1.060869e+003,2.561965e+001
1.062797e+003,2.832578e+001
1.064726e+003,2.936641e+001
1.066654e+003,2.685017e+001
1.068583e+003,2.352304e+001
1.070511e+003,2.012718e+001
1.072440e+003,1.643251e+001
1.074368e+003,1.577932e+001
1.076297e+003,2.240615e+001
1.078225e+003,2.699967e+001
1.080154e+003,2.444813e+001
1.082082e+003,1.746987e+001
1.084010e+003,1.408595e+001
1.085939e+003,1.574944e+001
1.087867e+003,1.722644e+001
1.089796e+003,1.594137e+001
1.091724e+003,1.399285e+001
1.093653e+003,1.378851e+001
1.095581e+003,1.562309e+001
1.097510e+003,1.829629e+001
1.099438e+003,2.337223e+001
1.101367e+003,2.771692e+001
1.103295e+003,2.888099e+001
1.105224e+003,2.651690e+001
1.107152e+003,2.505586e+001
1.109081e+003,2.430515e+001
1.111009e+003,2.462472e+001
1.112938e+003,2.767316e+001
1.114866e+003,3.171079e+001
1.116794e+003,3.237631e+001
1.118723e+003,2.803403e+001
1.120651e+003,2.450364e+001
1.122580e+003,2.509195e+001
1.124508e+003,2.650753e+001
1.126437e+003,2.477695e+001
1.128365e+003,1.759845e+001
1.130294e+003,1.471532e+001
1.132222e+003,1.811891e+001
1.134151e+003,2.407260e+001
1.136079e+003,3.110944e+001
1.138008e+003,3.922050e+001
1.139936e+003,4.785820e+001
1.141865e+003,5.938506e+001
1.143793e+003,6.787347e+001
1.145721e+003,7.007750e+001
1.147650e+003,6.833214e+001
1.149578e+003,6.610252e+001
1.151507e+003,6.324070e+001
1.153435e+003,6.070337e+001
1.155364e+003,5.873084e+001
1.157292e+003,5.721809e+001
1.159221e+003,5.638581e+001
1.161149e+003,5.648149e+001
1.163078e+003,5.561480e+001
1.165006e+003,5.043528e+001
1.166935e+003,4.822059e+001
1.168863e+003,5.354515e+001
1.170792e+003,6.341393e+001
1.172720e+003,6.927187e+001
1.174648e+003,6.963606e+001
1.176577e+003,7.042863e+001
1.178505e+003,7.638234e+001
1.180434e+003,8.056341e+001
1.182362e+003,7.494463e+001
1.184291e+003,6.002488e+001
1.186219e+003,5.020012e+001
1.188148e+003,4.630238e+001
1.190076e+003,4.981962e+001
1.192005e+003,6.318900e+001
1.193933e+003,8.412560e+001
1.195862e+003,1.052541e+002
1.197790e+003,1.300458e+002
1.199719e+003,1.492643e+002
1.201647e+003,1.629078e+002
1.203575e+003,1.701467e+002
1.205504e+003,1.700116e+002
1.207432e+003,1.619115e+002
1.209361e+003,1.478652e+002
1.211289e+003,1.221115e+002
1.213218e+003,9.735355e+001
1.215146e+003,7.889053e+001
1.217075e+003,6.520825e+001
1.219003e+003,5.318988e+001
1.220932e+003,4.254804e+001
1.222860e+003,3.441529e+001
1.224789e+003,3.122039e+001
1.226717e+003,2.899787e+001
1.228646e+003,2.404256e+001
1.230574e+003,1.562586e+001
1.232502e+003,1.188009e+001
1.234431e+003,1.676603e+001
1.236359e+003,2.205453e+001
1.238288e+003,2.683609e+001
1.240216e+003,3.030282e+001
1.242145e+003,3.042542e+001
1.244073e+003,2.552217e+001
1.246002e+003,2.167925e+001
1.247930e+003,1.910576e+001
1.249859e+003,1.793820e+001
1.251787e+003,1.939435e+001
1.253716e+003,2.262786e+001
1.255644e+003,2.361585e+001
1.257573e+003,2.097254e+001
1.259501e+003,1.862145e+001
1.261429e+003,1.855011e+001
1.263358e+003,1.920726e+001
1.265286e+003,1.843673e+001
1.267215e+003,1.566638e+001
1.269143e+003,1.515842e+001
1.271072e+003,1.954916e+001
1.273000e+003,2.405611e+001
1.274929e+003,2.603703e+001
1.276857e+003,2.668824e+001
1.278786e+003,3.003793e+001
1.280714e+003,3.995178e+001
1.282643e+003,4.701892e+001
1.284571e+003,4.744207e+001
1.286500e+003,4.785482e+001
1.288428e+003,5.394724e+001
1.290356e+003,6.536907e+001
1.292285e+003,7.645710e+001
1.294213e+003,8.887759e+001
1.296142e+003,9.762923e+001
1.298070e+003,9.943641e+001
1.299999e+003,9.728622e+001
1.301927e+003,9.431194e+001
1.303856e+003,9.047615e+001
1.305784e+003,8.666222e+001
1.307713e+003,8.368225e+001
1.309641e+003,7.979523e+001
1.311570e+003,7.321852e+001
1.313498e+003,6.535904e+001
1.315427e+003,6.010745e+001
1.317355e+003,5.897608e+001
1.319283e+003,5.714960e+001
1.321212e+003,5.166885e+001
1.323140e+003,4.776321e+001
1.325069e+003,4.956766e+001
1.326997e+003,5.650254e+001
1.328926e+003,6.233987e+001
1.330854e+003,6.861460e+001
1.332783e+003,7.158214e+001
1.334711e+003,6.887962e+001
1.336640e+003,6.384027e+001
1.338568e+003,5.899632e+001
1.340497e+003,5.441769e+001
1.342425e+003,5.134657e+001
1.344354e+003,5.122071e+001
1.346282e+003,5.012574e+001
1.348210e+003,4.498037e+001
1.350139e+003,3.887761e+001
1.352068e+003,3.578441e+001
1.353996e+003,3.593220e+001
1.355924e+003,3.532221e+001
1.357853e+003,3.281820e+001
1.359781e+003,3.028271e+001
1.361710e+003,2.806220e+001
1.363638e+003,2.641673e+001
1.365567e+003,2.597479e+001
1.367495e+003,2.718023e+001
1.369424e+003,2.839165e+001
1.371352e+003,3.086131e+001
1.373281e+003,3.189061e+001
1.375209e+003,2.844378e+001
1.377138e+003,2.251719e+001
1.379066e+003,2.080322e+001
1.380995e+003,2.540944e+001
1.382923e+003,3.004443e+001
1.384851e+003,3.639049e+001
1.386780e+003,4.071931e+001
1.388708e+003,3.775743e+001
1.390637e+003,3.038583e+001
1.392565e+003,3.091244e+001
1.394494e+003,4.201447e+001
1.396422e+003,5.258097e+001
1.398351e+003,6.217551e+001
1.400279e+003,6.834031e+001
1.402208e+003,6.868229e+001
1.404136e+003,6.418488e+001
1.406065e+003,5.697163e+001
1.407993e+003,4.478609e+001
1.409922e+003,3.713940e+001
1.411850e+003,4.117555e+001
1.413778e+003,4.678214e+001
1.415707e+003,4.547155e+001
1.417635e+003,3.831204e+001
1.419564e+003,3.724339e+001
1.421492e+003,4.586744e+001
1.423421e+003,5.416922e+001
1.425349e+003,5.988777e+001
1.427278e+003,6.483086e+001
1.429206e+003,7.104334e+001
1.431135e+003,7.842844e+001
1.433063e+003,8.252526e+001
1.434992e+003,8.243218e+001
1.436920e+003,8.003670e+001
1.438849e+003,7.565054e+001
1.440777e+003,6.899870e+001
1.442705e+003,5.824011e+001
1.444634e+003,4.381167e+001
1.446562e+003,3.370391e+001
1.448491e+003,2.707488e+001
1.450419e+003,2.572200e+001
1.452348e+003,3.542461e+001
1.454276e+003,4.608427e+001
1.456205e+003,4.954867e+001
1.458133e+003,4.647376e+001
1.460062e+003,4.012070e+001
1.461990e+003,2.722397e+001
1.463919e+003,2.022500e+001
1.465847e+003,2.779468e+001
1.467776e+003,3.797791e+001
1.469704e+003,4.265501e+001
1.471632e+003,4.282290e+001
1.473561e+003,4.056944e+001
1.475489e+003,3.397269e+001
1.477418e+003,3.240593e+001
1.479346e+003,4.438245e+001
1.481275e+003,5.584048e+001
1.483203e+003,5.690512e+001
1.485132e+003,5.011864e+001
1.487060e+003,4.512594e+001
1.488989e+003,4.249141e+001
1.490917e+003,4.044500e+001
1.492846e+003,4.020165e+001
1.494774e+003,3.883052e+001
1.496703e+003,3.311169e+001
1.498631e+003,2.531575e+001
1.500559e+003,2.261748e+001
1.502488e+003,2.746175e+001
1.504416e+003,3.038287e+001
1.506345e+003,2.808861e+001
1.508273e+003,2.675400e+001
1.510202e+003,3.089307e+001
1.512130e+003,3.693761e+001
1.514059e+003,3.725187e+001
1.515987e+003,2.783157e+001
1.517916e+003,2.521510e+001
1.519844e+003,3.701746e+001
1.521773e+003,4.542524e+001
1.523701e+003,4.203190e+001
1.525630e+003,3.395226e+001
1.527558e+003,3.020028e+001
1.529486e+003,3.120274e+001
1.531415e+003,3.320007e+001
1.533343e+003,3.835542e+001
1.535272e+003,4.146812e+001
1.537200e+003,4.020257e+001
1.539129e+003,3.748528e+001
1.541057e+003,3.586917e+001
1.542986e+003,3.523376e+001
1.544914e+003,3.412247e+001
1.546843e+003,3.172783e+001
1.548771e+003,3.097980e+001
1.550700e+003,3.463050e+001
1.552628e+003,3.800077e+001
1.554557e+003,3.779740e+001
1.556485e+003,3.503865e+001
1.558413e+003,3.187388e+001
1.560342e+003,2.777992e+001
1.562270e+003,2.688836e+001
1.564199e+003,3.138445e+001
1.566127e+003,3.710596e+001
1.568056e+003,4.208364e+001
1.569984e+003,4.714069e+001
1.571913e+003,5.361642e+001
1.573841e+003,6.143321e+001
1.575770e+003,6.927818e+001
1.577698e+003,7.906727e+001
1.579627e+003,8.406399e+001
1.581555e+003,7.646658e+001
1.583484e+003,6.783831e+001
1.585412e+003,6.673930e+001
1.587340e+003,7.239156e+001
1.589269e+003,8.288245e+001
1.591197e+003,1.004347e+002
1.593126e+003,1.131996e+002
1.595054e+003,1.158840e+002
1.596983e+003,1.162570e+002
1.598911e+003,1.212139e+002
1.600840e+003,1.257361e+002
1.602768e+003,1.175237e+002
1.604697e+003,9.509731e+001
1.606625e+003,8.030740e+001
1.608554e+003,8.071661e+001
1.610482e+003,7.966539e+001
1.612411e+003,6.796005e+001
1.614339e+003,5.526521e+001
1.616267e+003,5.101937e+001
1.618196e+003,5.407563e+001
1.620124e+003,5.450049e+001
1.622053e+003,5.156340e+001
1.623981e+003,4.758521e+001
1.625910e+003,4.110918e+001
1.627838e+003,3.576876e+001
1.629767e+003,3.438037e+001
1.631695e+003,3.487326e+001
1.633624e+003,3.298343e+001
1.635552e+003,2.818631e+001
1.637481e+003,2.494723e+001
1.639409e+003,2.395072e+001
1.641338e+003,2.390429e+001
1.643266e+003,2.514502e+001
1.645194e+003,2.657629e+001
1.647123e+003,2.755147e+001
1.649051e+003,2.800793e+001
1.650980e+003,2.736192e+001
1.652908e+003,2.476623e+001
1.654837e+003,2.352217e+001
1.656765e+003,2.464069e+001
1.658694e+003,2.638628e+001
1.660622e+003,2.931933e+001
1.662551e+003,3.183983e+001
1.664479e+003,3.154265e+001
1.666408e+003,2.827860e+001
1.668336e+003,2.589885e+001
1.670265e+003,2.389758e+001
1.672193e+003,2.383156e+001
1.674121e+003,2.885815e+001
1.676050e+003,3.258052e+001
1.677978e+003,3.008385e+001
1.679907e+003,2.432935e+001
1.681835e+003,2.172600e+001
1.683764e+003,2.316479e+001
1.685692e+003,2.325722e+001
1.687621e+003,2.035031e+001
1.689549e+003,1.850812e+001
1.691478e+003,1.916636e+001
1.693406e+003,2.053732e+001
1.695335e+003,2.139236e+001
1.697263e+003,2.195489e+001
1.699192e+003,2.323201e+001
1.701120e+003,2.608002e+001
1.703048e+003,2.650191e+001
1.704977e+003,2.172368e+001
1.706905e+003,1.798400e+001
1.708834e+003,1.717022e+001
1.710762e+003,1.770253e+001
1.712691e+003,1.834616e+001
1.714619e+003,1.915835e+001
1.716548e+003,2.088830e+001
1.718476e+003,2.489935e+001
1.720405e+003,2.529344e+001
1.722333e+003,1.743822e+001
1.724262e+003,1.151232e+001
1.726190e+003,1.160125e+001
1.728119e+003,1.407349e+001
1.730047e+003,1.581540e+001
1.731975e+003,1.689322e+001
1.733904e+003,1.793971e+001
1.735832e+003,1.924327e+001
1.737761e+003,1.949491e+001
1.739689e+003,1.753728e+001
1.741618e+003,1.591523e+001
1.743546e+003,1.470481e+001
1.745475e+003,1.482135e+001
1.747403e+003,1.816532e+001
1.749332e+003,2.405439e+001
1.751260e+003,2.732689e+001
1.753189e+003,2.770636e+001
1.755117e+003,2.651767e+001
1.757046e+003,2.309849e+001
1.758974e+003,1.949619e+001
1.760902e+003,1.534019e+001
1.762831e+003,1.227994e+001
1.764759e+003,1.180318e+001
1.766688e+003,1.371647e+001
1.768616e+003,1.804039e+001
1.770545e+003,2.577903e+001
1.772473e+003,2.921695e+001
1.774402e+003,2.423725e+001
1.776330e+003,2.013357e+001
1.778259e+003,2.229956e+001
1.780187e+003,2.515762e+001
1.782116e+003,2.370414e+001
1.784044e+003,1.955762e+001
1.785973e+003,1.700855e+001
1.787901e+003,1.616295e+001
1.789829e+003,1.688207e+001
1.791758e+003,2.004575e+001
1.793686e+003,2.265087e+001
1.795615e+003,2.342600e+001
1.797543e+003,2.354983e+001
1.799472e+003,2.414679e+001
1.801400e+003,2.456177e+001
1.803329e+003,2.301379e+001
1.805257e+003,1.959308e+001
1.807186e+003,1.811395e+001
1.809114e+003,1.980287e+001
1.811043e+003,2.082597e+001
1.812971e+003,1.902129e+001
1.814900e+003,1.758763e+001
1.816828e+003,1.841671e+001
1.818756e+003,2.060232e+001
1.820685e+003,2.336177e+001
1.822613e+003,2.651078e+001
1.824542e+003,2.867697e+001
1.826470e+003,3.008372e+001
1.828399e+003,2.958034e+001
1.830327e+003,2.539418e+001
1.832256e+003,2.137263e+001
1.834184e+003,1.819040e+001
1.836113e+003,1.638018e+001
1.838041e+003,1.744314e+001
1.839970e+003,2.030821e+001
1.841898e+003,2.070814e+001
1.843827e+003,1.732170e+001
1.845755e+003,1.640718e+001
1.847684e+003,2.116169e+001
1.849612e+003,2.367625e+001
1.851541e+003,2.101488e+001
1.853469e+003,1.732440e+001
1.855397e+003,1.391577e+001
1.857326e+003,1.174487e+001
1.859254e+003,1.313766e+001
1.861183e+003,1.815937e+001
1.863111e+003,2.114869e+001
1.865040e+003,2.104119e+001
1.866968e+003,2.125159e+001
1.868897e+003,2.240101e+001
1.870825e+003,2.339883e+001
1.872754e+003,2.279706e+001
1.874682e+003,2.296799e+001
1.876611e+003,2.809306e+001
1.878539e+003,3.521406e+001
1.880468e+003,3.425933e+001
1.882396e+003,2.451309e+001
1.884324e+003,1.955406e+001
1.886253e+003,2.244953e+001
1.888181e+003,2.376631e+001
1.890110e+003,1.903303e+001
1.892038e+003,1.544497e+001
1.893967e+003,1.848927e+001
1.895895e+003,2.303559e+001
1.897824e+003,2.384117e+001
1.899752e+003,2.180747e+001
1.901681e+003,1.899574e+001
1.903609e+003,1.526597e+001
1.905538e+003,1.536395e+001
1.907466e+003,2.248596e+001
1.909395e+003,2.668995e+001
1.911323e+003,2.160003e+001
1.913251e+003,1.673253e+001
1.915180e+003,1.840648e+001
1.917108e+003,2.247975e+001
1.919037e+003,2.353699e+001
1.920965e+003,2.209998e+001
1.922894e+003,2.115429e+001
1.924822e+003,2.022739e+001
1.926751e+003,2.156458e+001
1.928679e+003,2.868026e+001
1.930608e+003,3.293530e+001
1.932536e+003,3.061783e+001
1.934465e+003,2.750432e+001
1.936393e+003,2.751097e+001
1.938322e+003,2.816425e+001
1.940250e+003,2.523664e+001
1.942178e+003,1.956194e+001
1.944107e+003,1.718733e+001
1.946035e+003,1.847919e+001
1.947964e+003,2.188947e+001
1.949892e+003,2.963216e+001
1.951821e+003,3.488002e+001
1.953749e+003,3.552705e+001
1.955678e+003,3.403537e+001
1.957606e+003,3.017493e+001
1.959535e+003,2.591153e+001
1.961463e+003,2.343350e+001
1.963392e+003,2.234094e+001
1.965320e+003,2.097993e+001
1.967249e+003,1.928139e+001
1.969177e+003,2.077326e+001
1.971105e+003,2.743030e+001
1.973034e+003,3.195704e+001
1.974962e+003,3.202727e+001
1.976891e+003,3.026580e+001
1.978819e+003,2.614032e+001
1.980748e+003,2.226211e+001
1.982676e+003,2.090407e+001
1.984605e+003,2.168534e+001
1.986533e+003,2.430169e+001
1.988462e+003,2.895747e+001
1.990390e+003,3.162332e+001
1.992319e+003,3.103730e+001
1.994247e+003,3.067509e+001
1.996176e+003,3.096500e+001
1.998104e+003,3.093035e+001
2.000032e+003,3.085987e+001
2.001961e+003,2.979381e+001
2.003889e+003,2.589774e+001
2.005818e+003,2.137050e+001
2.007746e+003,1.925309e+001
2.009675e+003,1.941847e+001
2.011603e+003,2.180811e+001
2.013532e+003,2.679651e+001
2.015460e+003,2.842579e+001
2.017389e+003,2.482047e+001
2.019317e+003,2.217820e+001
2.021246e+003,2.279341e+001
2.023174e+003,2.351796e+001
2.025103e+003,2.105999e+001
2.027031e+003,1.976921e+001
2.028959e+003,2.563621e+001
2.030888e+003,3.429176e+001
2.032816e+003,3.714172e+001
2.034745e+003,3.447237e+001
2.036673e+003,3.096580e+001
2.038602e+003,2.520878e+001
2.040530e+003,2.277441e+001
2.042459e+003,2.669239e+001
2.044387e+003,2.943518e+001
2.046316e+003,2.873063e+001
2.048244e+003,2.799879e+001
2.050173e+003,3.036503e+001
2.052101e+003,3.196525e+001
2.054030e+003,2.659481e+001
2.055958e+003,1.859453e+001
2.057886e+003,1.966658e+001
2.059815e+003,2.863747e+001
2.061743e+003,3.294893e+001
2.063672e+003,3.171494e+001
2.065600e+003,2.859766e+001
2.067529e+003,2.240334e+001
2.069457e+003,1.919040e+001
2.071386e+003,2.286550e+001
2.073314e+003,2.697826e+001
2.075243e+003,2.731083e+001
2.077171e+003,2.775334e+001
2.079100e+003,3.343519e+001
2.081028e+003,4.100310e+001
2.082957e+003,4.376064e+001
2.084885e+003,4.198946e+001
2.086813e+003,3.915410e+001
2.088742e+003,3.413718e+001
2.090670e+003,3.144160e+001
2.092599e+003,3.224328e+001
2.094527e+003,3.300544e+001
2.096456e+003,3.318184e+001
2.098384e+003,3.331341e+001
2.100313e+003,3.363662e+001
2.102241e+003,3.394725e+001
2.104170e+003,3.445068e+001
2.106098e+003,3.462684e+001
2.108027e+003,3.373600e+001
2.109955e+003,3.196980e+001
2.111884e+003,2.900698e+001
2.113812e+003,2.488571e+001
2.115740e+003,2.545464e+001
2.117669e+003,3.318925e+001
2.119597e+003,3.866525e+001
2.121526e+003,4.084347e+001
2.123454e+003,4.066246e+001
2.125383e+003,3.553040e+001
2.127311e+003,3.157459e+001
2.129240e+003,3.308261e+001
2.131168e+003,3.575517e+001
2.133097e+003,3.547211e+001
2.135025e+003,3.383598e+001
2.136954e+003,3.398009e+001
2.138882e+003,3.543764e+001
2.140811e+003,3.597496e+001
2.142739e+003,3.555925e+001
2.144667e+003,3.396535e+001
2.146596e+003,3.054726e+001
2.148524e+003,2.900992e+001
2.150453e+003,3.077278e+001
2.152381e+003,3.309467e+001
2.154310e+003,3.562215e+001
2.156238e+003,3.787032e+001
2.158167e+003,4.164338e+001
2.160095e+003,4.299983e+001
2.162024e+003,3.517233e+001
2.163952e+003,2.435606e+001
2.165881e+003,2.179406e+001
2.167809e+003,2.613818e+001
2.169738e+003,3.040779e+001
2.171666e+003,3.464796e+001
2.173594e+003,3.548483e+001
2.175523e+003,3.208507e+001
2.177451e+003,2.903417e+001
2.179380e+003,2.611713e+001
2.181308e+003,2.632782e+001
2.183237e+003,3.503696e+001
2.185165e+003,4.042291e+001
2.187094e+003,3.251427e+001
2.189022e+003,2.505598e+001
2.190951e+003,3.081867e+001
2.192879e+003,4.045395e+001
2.194808e+003,4.187479e+001
2.196736e+003,3.753456e+001
2.198665e+003,3.340849e+001
2.200593e+003,2.957003e+001
2.202521e+003,2.966771e+001
2.204450e+003,3.427903e+001
2.206378e+003,3.530340e+001
2.208307e+003,3.125903e+001
2.210235e+003,2.723816e+001
2.212164e+003,2.258638e+001
2.214092e+003,2.197948e+001
2.216021e+003,3.215036e+001
2.217949e+003,3.978781e+001
2.219878e+003,3.662209e+001
2.221806e+003,3.088911e+001
2.223735e+003,2.699741e+001
2.225663e+003,2.589021e+001
2.227592e+003,3.096635e+001
2.229520e+003,3.922797e+001
2.231448e+003,4.202237e+001
2.233377e+003,3.993253e+001
2.235305e+003,3.828381e+001
2.237234e+003,3.716045e+001
2.239162e+003,3.765255e+001
2.241091e+003,4.058665e+001
2.243019e+003,4.073669e+001
2.244948e+003,3.481247e+001
2.246876e+003,3.144613e+001
2.248805e+003,3.636342e+001
2.250733e+003,3.932908e+001
2.252662e+003,3.342123e+001
2.254590e+003,2.803544e+001
2.256519e+003,2.991232e+001
2.258447e+003,3.435750e+001
2.260375e+003,3.847143e+001
2.262304e+003,4.093789e+001
2.264232e+003,3.782663e+001
2.266161e+003,3.151890e+001
2.268089e+003,3.002901e+001
2.270018e+003,3.269604e+001
2.271946e+003,3.245626e+001
2.273875e+003,2.844016e+001
2.275803e+003,2.675901e+001
2.277732e+003,2.882257e+001
2.279660e+003,3.100605e+001
2.281589e+003,3.266352e+001
2.283517e+003,3.504147e+001
2.285446e+003,4.012509e+001
2.287374e+003,4.343684e+001
2.289302e+003,4.244563e+001
2.291231e+003,4.063979e+001
2.293159e+003,3.933895e+001
2.295088e+003,3.857312e+001
2.297016e+003,3.830784e+001
2.298945e+003,3.864566e+001
2.300873e+003,3.994771e+001
2.302802e+003,4.188924e+001
2.304730e+003,4.467315e+001
2.306659e+003,4.768975e+001
2.308587e+003,4.514651e+001
2.310516e+003,3.584297e+001
2.312444e+003,3.136641e+001
2.314373e+003,3.254961e+001
2.316301e+003,3.377018e+001
2.318229e+003,3.474689e+001
2.320158e+003,3.501792e+001
2.322086e+003,3.450785e+001
2.324015e+003,3.328900e+001
2.325943e+003,2.855902e+001
2.327872e+003,2.722896e+001
2.329800e+003,3.582339e+001
2.331729e+003,4.359090e+001
2.333657e+003,4.325245e+001
2.335586e+003,4.045620e+001
2.337514e+003,3.884304e+001
2.339443e+003,3.852451e+001
2.341371e+003,4.072781e+001
2.343300e+003,4.374134e+001
2.345228e+003,4.362639e+001
2.347156e+003,4.163087e+001
2.349085e+003,4.213043e+001
2.351013e+003,4.489692e+001
2.352942e+003,4.574736e+001
2.354870e+003,4.428464e+001
2.356799e+003,4.352640e+001
2.358727e+003,4.368461e+001
2.360656e+003,4.386033e+001
2.362584e+003,4.362248e+001
2.364513e+003,4.473567e+001
2.366441e+003,4.836050e+001
2.368370e+003,5.088807e+001
2.370298e+003,5.085216e+001
2.372227e+003,5.037714e+001
2.374155e+003,5.079798e+001
2.376083e+003,5.037260e+001
2.378012e+003,4.632419e+001
2.379940e+003,4.335223e+001
2.381869e+003,4.770464e+001
2.383797e+003,5.199080e+001
2.385726e+003,4.643803e+001
2.387654e+003,3.798320e+001
2.389583e+003,3.611266e+001
2.391511e+003,3.887907e+001
2.393440e+003,4.453010e+001
2.395368e+003,5.121161e+001
2.397297e+003,5.216378e+001
2.399225e+003,4.773083e+001
2.401154e+003,4.167553e+001
2.403082e+003,3.285540e+001
2.405010e+003,3.298724e+001
2.406939e+003,4.504420e+001
2.408867e+003,5.008849e+001
2.410796e+003,4.499995e+001
2.412724e+003,4.459700e+001
2.414653e+003,5.367291e+001
2.416581e+003,5.803938e+001
2.418510e+003,5.103426e+001
2.420438e+003,4.532311e+001
2.422367e+003,4.469788e+001
2.424295e+003,4.532726e+001
2.426224e+003,4.667850e+001
2.428152e+003,4.796692e+001
2.430081e+003,4.809023e+001
2.432009e+003,4.904222e+001
2.433938e+003,5.436905e+001
2.435866e+003,5.826294e+001
2.437794e+003,5.411470e+001
2.439723e+003,4.797343e+001
2.441651e+003,4.555597e+001
2.443580e+003,4.610684e+001
2.445508e+003,5.024611e+001
2.447437e+003,5.561954e+001
2.449365e+003,5.738897e+001
2.451294e+003,5.572818e+001
2.453222e+003,4.957780e+001
2.455151e+003,4.060178e+001
2.457079e+003,3.691578e+001
2.459008e+003,3.828784e+001
2.460936e+003,3.934675e+001
2.462865e+003,3.968060e+001
2.464793e+003,4.223925e+001
2.466721e+003,4.936597e+001
2.468650e+003,5.040567e+001
2.470578e+003,4.275895e+001
2.472507e+003,4.000452e+001
2.474435e+003,4.507341e+001
2.476364e+003,4.758450e+001
2.478292e+003,4.424146e+001
2.480221e+003,4.223992e+001
2.482149e+003,4.571910e+001
2.484078e+003,4.700405e+001
2.486006e+003,4.158650e+001
2.487935e+003,3.799796e+001
2.489863e+003,3.975388e+001
2.491792e+003,4.255946e+001
2.493720e+003,4.652724e+001
2.495648e+003,4.857283e+001
2.497577e+003,4.495006e+001
2.499505e+003,4.144584e+001
2.501434e+003,4.216882e+001
2.503362e+003,4.429961e+001
2.505291e+003,4.638730e+001
2.507219e+003,4.781443e+001
2.509148e+003,4.677851e+001
2.511076e+003,4.574307e+001
2.513005e+003,4.963614e+001
2.514933e+003,5.404251e+001
2.516862e+003,5.025624e+001
2.518790e+003,4.385623e+001
2.520719e+003,4.714664e+001
2.522647e+003,5.549229e+001
2.524575e+003,5.464617e+001
2.526504e+003,4.809489e+001
2.528432e+003,5.240232e+001
2.530361e+003,6.461637e+001
2.532289e+003,6.713625e+001
2.534218e+003,6.130635e+001
2.536146e+003,5.707462e+001
2.538075e+003,5.475492e+001
2.540003e+003,5.165052e+001
2.541932e+003,4.737207e+001
2.543860e+003,4.559152e+001
2.545789e+003,4.644967e+001
2.547717e+003,4.998773e+001
2.549646e+003,5.703289e+001
2.551574e+003,5.714180e+001
2.553502e+003,4.796089e+001
2.555431e+003,4.138430e+001
2.557359e+003,3.842826e+001
2.559288e+003,3.984630e+001
2.561216e+003,4.890815e+001
2.563145e+003,5.610830e+001
2.565073e+003,6.057421e+001
2.567002e+003,6.420618e+001
2.568930e+003,6.776049e+001
2.570859e+003,6.908932e+001
2.572787e+003,6.749840e+001
2.574716e+003,6.396815e+001
2.576644e+003,5.630732e+001
2.578573e+003,5.068057e+001
2.580501e+003,4.887282e+001
2.582429e+003,4.916122e+001
2.584358e+003,5.357919e+001
2.586287e+003,5.510880e+001
2.588215e+003,4.757961e+001
2.590144e+003,4.270129e+001
2.592072e+003,4.860927e+001
2.594000e+003,5.458495e+001
2.595929e+003,5.708402e+001
2.597857e+003,5.597311e+001
2.599786e+003,4.524637e+001
2.601714e+003,3.885585e+001
2.603643e+003,5.001774e+001
2.605571e+003,6.002625e+001
2.607500e+003,5.230415e+001
2.609428e+003,4.384292e+001
2.611357e+003,4.782751e+001
2.613285e+003,5.561427e+001
2.615214e+003,6.476609e+001
2.617142e+003,6.935583e+001
2.619071e+003,5.844945e+001
2.620999e+003,4.692606e+001
2.622927e+003,5.048284e+001
2.624856e+003,5.682126e+001
2.626784e+003,5.079055e+001
2.628713e+003,4.350595e+001
2.630641e+003,5.132564e+001
2.632570e+003,6.156662e+001
2.634498e+003,5.644543e+001
2.636427e+003,4.672671e+001
2.638355e+003,4.526836e+001
2.640284e+003,4.756247e+001
2.642212e+003,4.819239e+001
2.644141e+003,4.845639e+001
2.646069e+003,5.057725e+001
2.647998e+003,5.342484e+001
2.649926e+003,5.500790e+001
2.651854e+003,5.613136e+001
2.653783e+003,6.032165e+001
2.655711e+003,6.335521e+001
2.657640e+003,5.438025e+001
2.659568e+003,4.221251e+001
2.661497e+003,4.512993e+001
2.663425e+003,5.584440e+001
2.665354e+003,6.143960e+001
2.667282e+003,6.251997e+001
2.669211e+003,5.829960e+001
2.671139e+003,5.166125e+001
2.673068e+003,4.786149e+001
2.674996e+003,4.621638e+001
2.676925e+003,4.525750e+001
2.678853e+003,4.523725e+001
2.680781e+003,4.826208e+001
2.682710e+003,5.196468e+001
2.684638e+003,4.857470e+001
2.686567e+003,4.252645e+001
2.688495e+003,4.437304e+001
2.690424e+003,5.047781e+001
2.692352e+003,5.201680e+001
2.694281e+003,5.092025e+001
2.696209e+003,5.217959e+001
2.698138e+003,5.476194e+001
2.700066e+003,5.601478e+001
2.701995e+003,5.647182e+001
2.703923e+003,5.730487e+001
2.705852e+003,5.829771e+001
2.707780e+003,6.037273e+001
2.709708e+003,6.149677e+001
2.711637e+003,5.253970e+001
2.713565e+003,4.073251e+001
2.715494e+003,4.714849e+001
2.717422e+003,6.140532e+001
2.719351e+003,6.164058e+001
2.721279e+003,5.437814e+001
2.723208e+003,5.325916e+001
2.725136e+003,5.553458e+001
2.727065e+003,5.596027e+001
2.728993e+003,5.491577e+001
2.730922e+003,5.249029e+001
2.732850e+003,4.952530e+001
2.734779e+003,4.560073e+001
2.736707e+003,4.349514e+001
2.738635e+003,5.104776e+001
2.740564e+003,6.208353e+001
2.742492e+003,6.701669e+001
2.744421e+003,6.684621e+001
2.746349e+003,5.976698e+001
2.748278e+003,5.190918e+001
2.750206e+003,5.454435e+001
2.752135e+003,6.001664e+001
2.754063e+003,5.664451e+001
2.755992e+003,4.975170e+001
2.757920e+003,4.443134e+001
2.759849e+003,4.182663e+001
2.761777e+003,4.501369e+001
2.763706e+003,4.968215e+001
2.765634e+003,5.074817e+001
2.767563e+003,5.092004e+001
2.769491e+003,5.364189e+001
2.771419e+003,5.634761e+001
2.773348e+003,5.630701e+001
2.775276e+003,5.554376e+001
2.777205e+003,5.606063e+001
2.779133e+003,5.630368e+001
2.781062e+003,5.336764e+001
2.782990e+003,5.155214e+001
2.784919e+003,5.627047e+001
2.786847e+003,6.056861e+001
2.788776e+003,5.923958e+001
2.790704e+003,5.719367e+001
2.792633e+003,5.760822e+001
2.794561e+003,5.815446e+001
2.796490e+003,5.571756e+001
2.798418e+003,5.602362e+001
2.800346e+003,6.509988e+001
2.802275e+003,7.094685e+001
2.804203e+003,6.384240e+001
2.806132e+003,5.839545e+001
2.808060e+003,6.431264e+001
2.809989e+003,6.622844e+001
2.811917e+003,5.514159e+001
2.813846e+003,4.988609e+001
2.815774e+003,5.978367e+001
2.817703e+003,6.717625e+001
2.819631e+003,6.480413e+001
2.821560e+003,6.237918e+001
2.823488e+003,6.035102e+001
2.825417e+003,6.144880e+001
2.827345e+003,6.690765e+001
2.829273e+003,7.203611e+001
2.831202e+003,7.588514e+001
2.833130e+003,7.954894e+001
2.835059e+003,8.301894e+001
2.836987e+003,8.660220e+001
2.838916e+003,9.024752e+001
2.840844e+003,9.377851e+001
2.842773e+003,9.693739e+001
2.844701e+003,1.038950e+002
2.846630e+003,1.164450e+002
2.848558e+003,1.221546e+002
2.850487e+003,1.207898e+002
2.852415e+003,1.185192e+002
2.854344e+003,1.157246e+002
2.856272e+003,1.147389e+002
2.858200e+003,1.155722e+002
2.860129e+003,1.194952e+002
2.862057e+003,1.246738e+002
2.863986e+003,1.183474e+002
2.865914e+003,1.046753e+002
2.867843e+003,9.655194e+001
2.869771e+003,9.264217e+001
2.871700e+003,9.011433e+001
2.873628e+003,8.905657e+001
2.875557e+003,9.163428e+001
2.877485e+003,9.408070e+001
2.879414e+003,8.787288e+001
2.881342e+003,8.099104e+001
2.883271e+003,8.365538e+001
2.885199e+003,8.869054e+001
2.887127e+003,8.923569e+001
2.889056e+003,8.841106e+001
2.890984e+003,8.524717e+001
2.892913e+003,8.661536e+001
2.894841e+003,9.905827e+001
2.896770e+003,1.140554e+002
2.898698e+003,1.252679e+002
2.900627e+003,1.408195e+002
2.902555e+003,1.657901e+002
2.904484e+003,1.905468e+002
2.906412e+003,2.066268e+002
2.908341e+003,2.355826e+002
2.910269e+003,2.896755e+002
2.912198e+003,3.473595e+002
2.914126e+003,4.102954e+002
2.916054e+003,4.649395e+002
2.917983e+003,5.130284e+002
2.919911e+003,5.278192e+002
2.921840e+003,4.984846e+002
2.923768e+003,4.606474e+002
2.925697e+003,4.130706e+002
2.927625e+003,3.734166e+002
2.929554e+003,3.423360e+002
2.931482e+003,3.249655e+002
2.933411e+003,3.198128e+002
2.935339e+003,3.162670e+002
2.937268e+003,3.143479e+002
2.939196e+003,3.153226e+002
2.941125e+003,3.176116e+002
2.943053e+003,3.207952e+002
2.944981e+003,3.200259e+002
2.946910e+003,3.046435e+002
2.948838e+003,2.830639e+002
2.950767e+003,2.587079e+002
2.952695e+003,2.431207e+002
2.954624e+003,2.484852e+002
2.956552e+003,2.623543e+002
2.958481e+003,2.862447e+002
2.960409e+003,3.001903e+002
2.962338e+003,2.921521e+002
2.964266e+003,2.723084e+002
2.966195e+003,2.347083e+002
2.968123e+003,2.070706e+002
2.970052e+003,2.029545e+002
2.971980e+003,2.026415e+002
2.973908e+003,2.057265e+002
2.975837e+003,2.043570e+002
2.977765e+003,1.974347e+002
2.979694e+003,1.868283e+002
2.981622e+003,1.720692e+002
2.983551e+003,1.557182e+002
2.985479e+003,1.377320e+002
2.987408e+003,1.263565e+002
2.989336e+003,1.213469e+002
2.991265e+003,1.217977e+002
2.993193e+003,1.257117e+002
2.995122e+003,1.259301e+002
2.997050e+003,1.256822e+002
2.998979e+003,1.337300e+002
3.000907e+003,1.438311e+002
3.002835e+003,1.506589e+002
3.004764e+003,1.523646e+002
3.006692e+003,1.417931e+002
3.008621e+003,1.326260e+002
3.010549e+003,1.344651e+002
3.012478e+003,1.388109e+002
3.014406e+003,1.389535e+002
3.016335e+003,1.448465e+002
3.018263e+003,1.623963e+002
3.020192e+003,1.816657e+002
3.022120e+003,2.011617e+002
3.024049e+003,2.231451e+002
3.025977e+003,2.491002e+002
3.027906e+003,2.736765e+002
3.029834e+003,2.974478e+002
3.031762e+003,3.102702e+002
3.033691e+003,3.138295e+002
3.035619e+003,3.305247e+002
3.037548e+003,3.537195e+002
3.039476e+003,3.390882e+002
3.041405e+003,3.127533e+002
3.043333e+003,3.329255e+002
3.045262e+003,3.946699e+002
3.047190e+003,4.941822e+002
3.049119e+003,6.231994e+002
3.051047e+003,8.075540e+002
3.052976e+003,9.669218e+002
3.054904e+003,1.052547e+003
3.056833e+003,1.096753e+003
3.058761e+003,1.108833e+003
3.060689e+003,1.094787e+003
3.062618e+003,1.069300e+003
3.064546e+003,9.836423e+002
3.066475e+003,8.218648e+002
3.068403e+003,6.636213e+002
3.070332e+003,5.146130e+002
3.072260e+003,3.962883e+002
3.074189e+003,3.082615e+002
3.076117e+003,2.376362e+002
3.078046e+003,1.861285e+002
3.079974e+003,1.636776e+002
3.081903e+003,1.594494e+002
3.083831e+003,1.538181e+002
3.085760e+003,1.466124e+002
3.087688e+003,1.359229e+002
3.089616e+003,1.259460e+002
3.091545e+003,1.206265e+002
3.093473e+003,1.164566e+002
3.095402e+003,1.112807e+002
3.097330e+003,1.069756e+002
3.099259e+003,1.038178e+002
3.101187e+003,1.022364e+002
3.103116e+003,1.060815e+002
3.105044e+003,1.020077e+002
3.106973e+003,8.862093e+001
3.108901e+003,8.066451e+001
3.110830e+003,7.878867e+001
3.112758e+003,7.647324e+001
3.114687e+003,7.367058e+001
3.116615e+003,6.925987e+001
3.118543e+003,6.572208e+001
3.120472e+003,7.032937e+001
3.122400e+003,7.611539e+001
3.124329e+003,7.406743e+001
3.126257e+003,7.058829e+001
3.128186e+003,7.090314e+001
3.130114e+003,7.047618e+001
3.132043e+003,6.669934e+001
3.133971e+003,6.282232e+001
3.135900e+003,5.946638e+001
3.137828e+003,5.596316e+001
3.139757e+003,5.165399e+001
3.141685e+003,5.380589e+001
3.143614e+003,6.356121e+001
3.145542e+003,6.998475e+001
3.147470e+003,7.310295e+001
3.149399e+003,7.131205e+001
3.151327e+003,6.795843e+001
3.153256e+003,6.996872e+001
3.155184e+003,7.434087e+001
3.157113e+003,7.804050e+001
3.159041e+003,8.126110e+001
3.160970e+003,8.694566e+001
3.162898e+003,8.738371e+001
3.164827e+003,7.317807e+001
3.166755e+003,6.558586e+001
3.168684e+003,7.137203e+001
3.170612e+003,6.620207e+001
3.172541e+003,4.351252e+001
3.174469e+003,3.538912e+001
3.176397e+003,4.225307e+001
3.178326e+003,5.230371e+001
3.180254e+003,6.287165e+001
3.182183e+003,6.552448e+001
3.184111e+003,6.399764e+001
3.186040e+003,6.512129e+001
3.187968e+003,6.383958e+001
3.189897e+003,5.201766e+001
3.191825e+003,4.347999e+001
3.193754e+003,4.925441e+001
3.195682e+003,5.263645e+001
3.197611e+003,4.873302e+001
3.199539e+003,4.785740e+001
3.201468e+003,5.212434e+001
3.203396e+003,5.559842e+001
3.205324e+003,5.799224e+001
3.207253e+003,5.560968e+001
3.209181e+003,4.950600e+001
3.211110e+003,4.078063e+001
3.213038e+003,3.303729e+001
3.214967e+003,3.169596e+001
3.216895e+003,3.446809e+001
3.218824e+003,4.301475e+001
3.220752e+003,4.826303e+001
3.222681e+003,4.380806e+001
3.224609e+003,3.819762e+001
3.226538e+003,3.179657e+001
3.228466e+003,3.140792e+001
3.230395e+003,3.888037e+001
3.232323e+003,3.687098e+001
3.234251e+003,2.697441e+001
3.236180e+003,3.119551e+001
3.238108e+003,4.120193e+001
3.240037e+003,3.953152e+001
3.241965e+003,3.335400e+001
3.243894e+003,2.794320e+001
3.245822e+003,2.631830e+001
3.247751e+003,3.318608e+001
3.249679e+003,3.741961e+001
3.251608e+003,3.325511e+001
3.253536e+003,2.862363e+001
3.255465e+003,2.353875e+001
3.257393e+003,2.730755e+001
3.259322e+003,3.951549e+001
3.261250e+003,4.101303e+001
3.263178e+003,3.565032e+001
3.265107e+003,3.393882e+001
3.267035e+003,3.461089e+001
3.268964e+003,3.955057e+001
3.270892e+003,4.106720e+001
3.272821e+003,2.982186e+001
3.274749e+003,2.226800e+001
3.276678e+003,2.537382e+001
3.278606e+003,2.760721e+001
3.280535e+003,2.685568e+001
3.282463e+003,2.842863e+001
3.284392e+003,3.175842e+001
3.286320e+003,3.095229e+001
3.288249e+003,2.719035e+001
3.290177e+003,2.225041e+001
3.292105e+003,1.809104e+001
3.294034e+003,1.664735e+001
3.295962e+003,1.690302e+001
3.297891e+003,1.770593e+001
3.299819e+003,2.193609e+001
3.301748e+003,3.222725e+001
3.303676e+003,3.546575e+001
3.305605e+003,2.779801e+001
3.307533e+003,2.394213e+001
3.309462e+003,2.336320e+001
3.311390e+003,2.165098e+001
3.313319e+003,2.178871e+001
3.315247e+003,3.189874e+001
3.317176e+003,4.302444e+001
3.319104e+003,4.961111e+001
3.321032e+003,5.029044e+001
3.322961e+003,3.996835e+001
3.324889e+003,3.244104e+001
3.326818e+003,2.930877e+001
3.328746e+003,3.078040e+001
3.330675e+003,3.630763e+001
3.332603e+003,3.885184e+001
3.334532e+003,3.680867e+001
3.336460e+003,1.772193e+001
3.338389e+003,9.387011e-001
3.340317e+003,1.282849e+001
3.342246e+003,2.567506e+001
3.344174e+003,2.367823e+001
3.346103e+003,2.044617e+001
3.348031e+003,1.757892e+001
3.349959e+003,2.110965e+001
3.351888e+003,3.203281e+001
3.353816e+003,3.490824e+001
3.355745e+003,3.260412e+001
3.357673e+003,3.456371e+001
3.359602e+003,3.692079e+001
3.361530e+003,3.456737e+001
3.363459e+003,2.997937e+001
3.365387e+003,2.147702e+001
3.367316e+003,1.757707e+001
3.369244e+003,2.220534e+001
3.371173e+003,2.529478e+001
3.373101e+003,2.611294e+001
3.375030e+003,2.381559e+001
3.376958e+003,1.919884e+001
3.378886e+003,1.195514e+001
3.380815e+003,7.452252e+000
3.382743e+003,1.401676e+001
3.384672e+003,2.195668e+001
3.386600e+003,2.895106e+001
3.388529e+003,2.706283e+001
3.390457e+003,1.129570e+001
3.392386e+003,6.702445e+000
3.394314e+003,1.515753e+001
3.396243e+003,2.167114e+001
3.398171e+003,2.615711e+001
3.400100e+003,2.890714e+001
3.402028e+003,2.962796e+001
3.403957e+003,2.467703e+001
3.405885e+003,2.340398e+001
3.407813e+003,3.347095e+001
3.409742e+003,3.807652e+001
3.411670e+003,3.324729e+001
3.413599e+003,3.168933e+001
3.415527e+003,3.274339e+001
3.417456e+003,2.674005e+001
3.419384e+003,2.004955e+001
3.421313e+003,3.038297e+001
3.423241e+003,3.872695e+001
3.425170e+003,2.542164e+001
3.427098e+003,1.748177e+001
3.429027e+003,2.488473e+001
3.430955e+003,2.888811e+001
3.432884e+003,2.729969e+001
3.434812e+003,2.722368e+001
3.436740e+003,2.823720e+001
3.438669e+003,2.882249e+001
3.440597e+003,2.854996e+001
3.442526e+003,2.715872e+001
3.444454e+003,2.400048e+001
3.446383e+003,1.671267e+001
3.448311e+003,1.527754e+001
3.450240e+003,2.450317e+001
3.452168e+003,2.633655e+001
3.454097e+003,2.178843e+001
3.456025e+003,1.722941e+001
3.457954e+003,1.467103e+001
3.459882e+003,2.097144e+001
3.461811e+003,2.415977e+001
3.463739e+003,1.270527e+001
3.465667e+003,9.563662e+000
3.467596e+003,2.887018e+001
3.469524e+003,3.804361e+001
3.471453e+003,3.707088e+001
3.473381e+003,2.588511e+001
3.475310e+003,1.240014e+001
3.477238e+003,1.366048e+001
3.479167e+003,1.871876e+001
3.481095e+003,1.944274e+001
3.483024e+003,2.144143e+001
3.484952e+003,2.774881e+001
3.486881e+003,2.975604e+001
3.488809e+003,2.691182e+001
3.490738e+003,2.042805e+001
3.492666e+003,1.414758e+001
3.494594e+003,2.112705e+001
3.496523e+003,2.804862e+001
3.498451e+003,2.185401e+001
3.500380e+003,1.664997e+001
3.502308e+003,1.599330e+001
3.504237e+003,1.874632e+001
3.506165e+003,2.479355e+001
3.508094e+003,2.554326e+001
3.510022e+003,2.346583e+001
3.511951e+003,2.525157e+001
3.513879e+003,2.678407e+001
3.515808e+003,2.332990e+001
3.517736e+003,2.117866e+001
3.519665e+003,2.291188e+001
3.521593e+003,2.033631e+001
3.523521e+003,1.280732e+001
3.525450e+003,8.615679e+000
3.527378e+003,8.781168e+000
3.529307e+003,1.879821e+001
3.531235e+003,2.719474e+001
3.533164e+003,2.281223e+001
3.535092e+003,2.043851e+001
3.537021e+003,2.536266e+001
3.538949e+003,2.979885e+001
3.540878e+003,3.324348e+001
3.542806e+003,3.416779e+001
3.544735e+003,3.216357e+001
3.546663e+003,2.314215e+001
3.548592e+003,1.594047e+001
3.550520e+003,1.558764e+001
3.552448e+003,1.800606e+001
3.554377e+003,2.304923e+001
3.556305e+003,2.569628e+001
3.558234e+003,2.693958e+001
3.560162e+003,3.496186e+001
3.562091e+003,4.050004e+001
3.564019e+003,2.526832e+001
3.565948e+003,1.470330e+001
3.567876e+003,2.688604e+001
3.569805e+003,3.044553e+001
3.571733e+003,2.321289e+001
3.573662e+003,2.557063e+001
3.575590e+003,3.189710e+001
3.577519e+003,2.206202e+001
3.579447e+003,1.223986e+001
3.581376e+003,1.681137e+001
3.583304e+003,2.314103e+001
3.585233e+003,2.939996e+001
3.587161e+003,2.690303e+001
3.589090e+003,1.674328e+001
3.591018e+003,1.347918e+001
3.592947e+003,1.478351e+001
3.594875e+003,1.791930e+001
3.596803e+003,2.213458e+001
3.598732e+003,3.053928e+001
3.600660e+003,3.024192e+001
3.602589e+003,1.994060e+001
3.604517e+003,2.111465e+001
3.606446e+003,2.760950e+001
3.608374e+003,1.296729e+001
3.610303e+003,4.281624e-001
3.612231e+003,1.499087e+001
3.614160e+003,2.566962e+001
3.616088e+003,2.488640e+001
3.618017e+003,2.454701e+001
3.619945e+003,2.517145e+001
3.621874e+003,2.321807e+001
3.623802e+003,1.891659e+001
3.625730e+003,8.306375e+000
3.627659e+003,4.715692e+000
3.629587e+003,1.791208e+001
3.631516e+003,2.202865e+001
3.633444e+003,1.393267e+001
3.635373e+003,1.894890e+001
3.637301e+003,2.889988e+001
3.639230e+003,2.621164e+001
3.641158e+003,2.175941e+001
3.643087e+003,2.287867e+001
3.645015e+003,2.328516e+001
3.646944e+003,2.203692e+001
3.648872e+003,2.375476e+001
3.650801e+003,2.668011e+001
3.652729e+003,2.272140e+001
3.654657e+003,1.870202e+001
3.656586e+003,2.136987e+001
3.658514e+003,2.409031e+001
3.660443e+003,2.607398e+001
3.662371e+003,1.737268e+001
3.664300e+003,2.772887e+000
3.666228e+003,1.123868e+001
3.668157e+003,2.561275e+001
3.670085e+003,3.046683e+001
3.672014e+003,3.034100e+001
3.673942e+003,2.594207e+001
3.675871e+003,2.404502e+001
3.677799e+003,2.449291e+001
3.679728e+003,1.926048e+001
3.681656e+003,1.489903e+001
3.683584e+003,2.265385e+001
3.685513e+003,2.670906e+001
3.687441e+003,2.054528e+001
3.689370e+003,1.667097e+001
3.691298e+003,1.661763e+001
3.693227e+003,2.456381e+001
3.695155e+003,3.270809e+001
3.697084e+003,2.994066e+001
3.699012e+003,2.499975e+001
3.700941e+003,2.047913e+001
3.702869e+003,2.008082e+001
3.704798e+003,2.375762e+001
3.706726e+003,2.348546e+001
3.708655e+003,2.200095e+001
3.710583e+003,2.454773e+001
3.712511e+003,2.457174e+001
3.714440e+003,1.744735e+001
3.716368e+003,1.606419e+001
3.718297e+003,2.130299e+001
3.720225e+003,2.473996e+001
3.722154e+003,2.593864e+001
3.724082e+003,2.222698e+001
3.726011e+003,2.105272e+001
3.727939e+003,2.762399e+001
3.729868e+003,2.722474e+001
3.731796e+003,1.929081e+001
3.733725e+003,1.219188e+001
3.735653e+003,9.139635e+000
3.737582e+003,1.727593e+001
3.739510e+003,2.387717e+001
3.741438e+003,2.380112e+001
3.743367e+003,2.259417e+001
3.745295e+003,2.108029e+001
3.747224e+003,2.244788e+001
3.749152e+003,2.385981e+001
3.751081e+003,2.155607e+001
3.753009e+003,1.935654e+001
3.754938e+003,1.808027e+001
3.756866e+003,1.987433e+001
3.758795e+003,2.390286e+001
3.760723e+003,2.611286e+001
3.762652e+003,2.728521e+001
3.764580e+003,2.908065e+001
3.766509e+003,2.785498e+001
3.768437e+003,2.227718e+001
3.770365e+003,2.011144e+001
3.772294e+003,2.033405e+001
3.774222e+003,1.876486e+001
3.776151e+003,1.729799e+001
3.778079e+003,1.738581e+001
3.780008e+003,1.728660e+001
3.781936e+003,1.663394e+001
3.783865e+003,2.068543e+001
3.785793e+003,2.653093e+001
3.787722e+003,2.907789e+001
3.789650e+003,2.888310e+001
3.791579e+003,2.448820e+001
3.793507e+003,2.396334e+001
3.795436e+003,2.747605e+001
3.797364e+003,2.903536e+001
3.799292e+003,2.966697e+001
3.801221e+003,3.211919e+001
3.803149e+003,3.113498e+001
3.805078e+003,2.311667e+001
3.807006e+003,2.072774e+001
3.808935e+003,2.220200e+001
3.810863e+003,1.716752e+001
3.812792e+003,1.107118e+001
3.814720e+003,7.692797e+000
3.816649e+003,7.406947e+000
3.818577e+003,1.086475e+001
3.820506e+003,1.591310e+001
3.822434e+003,2.034826e+001
3.824363e+003,1.721129e+001
3.826291e+003,1.687766e+001
3.828219e+003,2.640638e+001
3.830148e+003,3.021099e+001
3.832076e+003,2.708434e+001
3.834005e+003,2.525610e+001
3.835933e+003,2.421220e+001
3.837862e+003,2.407544e+001
3.839790e+003,2.237154e+001
3.841719e+003,1.814631e+001
3.843647e+003,1.976391e+001
3.845576e+003,2.460472e+001
3.847504e+003,2.481071e+001
3.849433e+003,2.195023e+001
3.851361e+003,1.251800e+001
3.853290e+003,1.324575e+001
3.855218e+003,2.384689e+001
3.857146e+003,2.071873e+001
3.859075e+003,1.632148e+001
3.861003e+003,3.418142e+001
3.862932e+003,4.224792e+001
3.864860e+003,2.483641e+001
3.866789e+003,1.781411e+001
3.868717e+003,1.941364e+001
3.870646e+003,2.304325e+001
3.872574e+003,2.472951e+001
3.874503e+003,2.074318e+001
3.876431e+003,1.964802e+001
3.878360e+003,2.220505e+001
3.880288e+003,2.690229e+001
3.882217e+003,2.948228e+001
3.884145e+003,2.004140e+001
3.886073e+003,1.646135e+001
3.888002e+003,2.571604e+001
3.889930e+003,2.374854e+001
3.891859e+003,1.660485e+001
3.893787e+003,2.143840e+001
3.895716e+003,2.915966e+001
3.897644e+003,3.680420e+001
3.899573e+003,3.601020e+001
3.901501e+003,2.729563e+001
3.903430e+003,1.917427e+001
3.905358e+003,1.656017e+001
3.907287e+003,2.989475e+001
3.909215e+003,3.582815e+001
3.911144e+003,3.067119e+001
3.913072e+003,2.643716e+001
3.915000e+003,2.371339e+001
3.916929e+003,2.432136e+001
3.918857e+003,2.249935e+001
3.920786e+003,1.433926e+001
3.922714e+003,8.781170e+000
3.924643e+003,7.595500e+000
3.926571e+003,1.926367e+001
3.928500e+003,2.790108e+001
3.930428e+003,2.200736e+001
3.932357e+003,1.981594e+001
3.934285e+003,2.204603e+001
3.936214e+003,1.597674e+001
3.938142e+003,9.194056e+000
3.940071e+003,8.816740e+000
3.941999e+003,1.292879e+001
3.943927e+003,2.209142e+001
3.945856e+003,1.815552e+001
3.947784e+003,1.166731e+001
3.949713e+003,1.930674e+001
3.951641e+003,2.858296e+001
3.953570e+003,3.630668e+001
3.955498e+003,3.526075e+001
3.957427e+003,2.884536e+001
3.959355e+003,2.441600e+001
3.961284e+003,2.156589e+001
3.963212e+003,2.059776e+001
3.965141e+003,1.964842e+001
3.967069e+003,1.903761e+001
3.968998e+003,1.943280e+001
3.970926e+003,2.269919e+001
3.972854e+003,3.270465e+001
3.974783e+003,3.581269e+001
3.976711e+003,3.241442e+001
3.978640e+003,3.762961e+001
3.980568e+003,4.047503e+001
3.982497e+003,2.799672e+001
3.984425e+003,1.666799e+001
3.986354e+003,9.557012e+000
3.988282e+003,1.384667e+001
3.990211e+003,2.243225e+001
3.992139e+003,2.827049e+001
3.994068e+003,3.025258e+001
3.995996e+003,2.813902e+001
3.997925e+003,2.630259e+001
3.999853e+003,2.399153e+001
4.001781e+003,1.814046e+001
4.003710e+003,1.499814e+001
4.005638e+003,1.666886e+001
4.007567e+003,1.860009e+001
4.009495e+003,1.883425e+001
4.011424e+003,1.085717e+001
4.013352e+003,4.631543e+000
4.015281e+003,3.143664e+000
4.017209e+003,1.346949e+001
4.019138e+003,2.790600e+001
4.021066e+003,2.629735e+001
4.022995e+003,2.154464e+001
4.024923e+003,1.857725e+001
4.026852e+003,2.311573e+001
4.028780e+003,3.158836e+001
4.030708e+003,3.132314e+001
4.032637e+003,2.785073e+001
4.034565e+003,2.342855e+001
4.036494e+003,1.905221e+001
4.038422e+003,1.575589e+001
4.040351e+003,1.939177e+001
4.042279e+003,2.225870e+001
4.044208e+003,1.784377e+001
4.046136e+003,1.578258e+001
4.048065e+003,1.608176e+001
4.049993e+003,1.698325e+001
4.051922e+003,1.666474e+001
4.053850e+003,1.293037e+001
4.055779e+003,1.472959e+001
4.057707e+003,2.042697e+001
4.059635e+003,1.771463e+001
4.061564e+003,1.146387e+001
4.063492e+003,1.662006e+000
4.065421e+003,6.925160e+000
4.067349e+003,2.420567e+001
4.069278e+003,2.468407e+001
4.071206e+003,2.323832e+001
4.073135e+003,3.460966e+001
4.075063e+003,3.305222e+001
4.076992e+003,2.031826e+001
4.078920e+003,1.050610e+001
4.080849e+003,8.067491e+000
4.082777e+003,1.908584e+001
4.084706e+003,2.429864e+001
4.086634e+003,2.354852e+001
4.088563e+003,2.176818e+001
4.090491e+003,2.019011e+001
4.092419e+003,1.930597e+001
4.094348e+003,2.033189e+001
4.096276e+003,2.226551e+001
4.098205e+003,1.977909e+001
4.100133e+003,1.819754e+001
4.102062e+003,2.104573e+001
4.103990e+003,2.249952e+001
4.105919e+003,2.279556e+001
4.107847e+003,2.480838e+001
4.109776e+003,2.525559e+001
4.111704e+003,2.166867e+001
4.113633e+003,1.612096e+001
4.115561e+003,1.225635e+001
4.117490e+003,2.144611e+001
4.119418e+003,2.845176e+001
4.121347e+003,2.730013e+001
4.123275e+003,2.336138e+001
4.125204e+003,1.825701e+001
4.127132e+003,1.245952e+001
4.129061e+003,1.160749e+001
4.130989e+003,1.716439e+001
4.132917e+003,1.820177e+001
4.134846e+003,1.555067e+001
4.136774e+003,7.739962e+000
4.138703e+003,7.868134e+000
4.140631e+003,1.944895e+001
4.142560e+003,1.896222e+001
4.144488e+003,1.462664e+001
4.146417e+003,1.471175e+001
4.148345e+003,2.045023e+001
4.150273e+003,3.125273e+001
4.152202e+003,2.348417e+001
4.154130e+003,1.571254e+001
4.156059e+003,3.207631e+001
4.157987e+003,3.121898e+001
4.159916e+003,1.441593e+001
4.161844e+003,1.566311e+001
4.163773e+003,2.004274e+001
4.165701e+003,1.658543e+001
4.167630e+003,1.701681e+001
4.169558e+003,2.055312e+001
4.171487e+003,2.412885e+001
4.173415e+003,2.527979e+001
4.175344e+003,2.305967e+001
4.177272e+003,1.754226e+001
4.179201e+003,1.160229e+001
4.181129e+003,9.447939e+000
4.183058e+003,1.210147e+001
4.184986e+003,1.928991e+001
4.186915e+003,2.118363e+001
4.188843e+003,1.877629e+001
4.190771e+003,1.247148e+001
4.192700e+003,5.220854e+000
4.194628e+003,-1.417260e+000
4.196557e+003,1.007127e+001
4.198485e+003,2.301049e+001
4.200414e+003,2.540342e+001
4.202342e+003,2.147401e+001
4.204271e+003,1.509372e+001
4.206199e+003,2.259943e+001
4.208127e+003,2.820803e+001
4.210056e+003,2.344054e+001
4.211984e+003,1.938391e+001
4.213913e+003,1.757151e+001
4.215841e+003,2.331709e+001
4.217770e+003,2.439658e+001
4.219698e+003,1.665234e+001
4.221627e+003,9.859097e+000
4.223555e+003,8.840456e+000
4.225484e+003,2.669895e+001
4.227412e+003,3.115714e+001
4.229341e+003,2.053423e+001
4.231269e+003,1.019950e+001
4.233198e+003,6.751049e+000
4.235126e+003,2.127801e+001
4.237055e+003,2.102569e+001
4.238983e+003,1.275915e+001
4.240912e+003,1.594609e+001
4.242840e+003,2.131655e+001
4.244769e+003,2.626131e+001
4.246697e+003,2.116919e+001
4.248625e+003,1.477301e+001
4.250554e+003,1.598930e+001
