1.159199e+002,6.502994e+002
1.178484e+002,7.658053e+002
1.197769e+002,8.826433e+002
1.217053e+002,1.001219e+003
1.236338e+002,1.090144e+003
1.255623e+002,1.133145e+003
1.274907e+002,1.156308e+003
1.294192e+002,1.184355e+003
1.313477e+002,1.223926e+003
1.332761e+002,1.259736e+003
1.352046e+002,1.295693e+003
1.371331e+002,1.335584e+003
1.390615e+002,1.337782e+003
1.409900e+002,1.276784e+003
1.429185e+002,1.173129e+003
1.448469e+002,1.058119e+003
1.467754e+002,9.158868e+002
1.487039e+002,7.775278e+002
1.506323e+002,6.555232e+002
1.525608e+002,5.474651e+002
1.544893e+002,4.616178e+002
1.564177e+002,4.039630e+002
1.583462e+002,3.699044e+002
1.602747e+002,3.378552e+002
1.622031e+002,3.060241e+002
1.641316e+002,2.779711e+002
1.660601e+002,2.549786e+002
1.679885e+002,2.375347e+002
1.699170e+002,2.230069e+002
1.718455e+002,2.108547e+002
1.737739e+002,2.010443e+002
1.757024e+002,1.916863e+002
1.776309e+002,1.818368e+002
1.795593e+002,1.727542e+002
1.814878e+002,1.654917e+002
1.834163e+002,1.586852e+002
1.853447e+002,1.550158e+002
1.872732e+002,1.527951e+002
1.892017e+002,1.520928e+002
1.911301e+002,1.614390e+002
1.930586e+002,1.916558e+002
1.949871e+002,2.297820e+002
1.969155e+002,2.594695e+002
1.988440e+002,2.870887e+002
2.007725e+002,3.027614e+002
2.027009e+002,3.005287e+002
2.046294e+002,2.806806e+002
2.065579e+002,2.559102e+002
2.084864e+002,2.238694e+002
2.104148e+002,1.885027e+002
2.123433e+002,1.588225e+002
2.142718e+002,1.352475e+002
2.162002e+002,1.161700e+002
2.181287e+002,1.007146e+002
2.200572e+002,9.003181e+001
2.219856e+002,8.048567e+001
2.239141e+002,7.085045e+001
2.258426e+002,6.229079e+001
2.277710e+002,5.690359e+001
2.296995e+002,5.709610e+001
2.316280e+002,5.805775e+001
2.335564e+002,5.754205e+001
2.354849e+002,5.417226e+001
2.374134e+002,5.112394e+001
2.393418e+002,4.824248e+001
2.412703e+002,4.568900e+001
2.431988e+002,4.378969e+001
2.451272e+002,4.356563e+001
2.470557e+002,4.321600e+001
2.489842e+002,4.166977e+001
2.509126e+002,3.795832e+001
2.528411e+002,3.506013e+001
2.547696e+002,3.369304e+001
2.566980e+002,3.347623e+001
2.586265e+002,3.360161e+001
2.605550e+002,3.394132e+001
2.624834e+002,3.469136e+001
2.644119e+002,3.627506e+001
2.663404e+002,3.902483e+001
2.682688e+002,4.124554e+001
2.701973e+002,4.272893e+001
2.721258e+002,4.348125e+001
2.740542e+002,4.295996e+001
2.759827e+002,3.945192e+001
2.779112e+002,3.600646e+001
2.798396e+002,3.433087e+001
2.817681e+002,3.439716e+001
2.836966e+002,3.539767e+001
2.856250e+002,3.746384e+001
2.875535e+002,4.034853e+001
2.894820e+002,4.309595e+001
2.914104e+002,4.577362e+001
2.933389e+002,4.834267e+001
2.952674e+002,5.036079e+001
2.971958e+002,5.126315e+001
2.991243e+002,5.416686e+001
3.010528e+002,6.108019e+001
3.029813e+002,7.042948e+001
3.049097e+002,7.739845e+001
3.068382e+002,8.239008e+001
3.087667e+002,8.458570e+001
3.106951e+002,8.342252e+001
3.126236e+002,7.783942e+001
3.145521e+002,7.207647e+001
3.164805e+002,6.549787e+001
3.184090e+002,5.924153e+001
3.203375e+002,5.565028e+001
3.222659e+002,5.686421e+001
3.241944e+002,5.767373e+001
3.261229e+002,5.577931e+001
3.280513e+002,4.927071e+001
3.299798e+002,4.499817e+001
3.319083e+002,4.388028e+001
3.338367e+002,4.471280e+001
3.357652e+002,4.533813e+001
3.376937e+002,4.411556e+001
3.396221e+002,4.557961e+001
3.415506e+002,5.219196e+001
3.434791e+002,6.566066e+001
3.454075e+002,7.543603e+001
3.473360e+002,7.860391e+001
3.492645e+002,7.974708e+001
3.511929e+002,8.352190e+001
3.531214e+002,9.326334e+001
3.550499e+002,9.908615e+001
3.569783e+002,9.720536e+001
3.589068e+002,8.768869e+001
3.608353e+002,8.040630e+001
3.627637e+002,7.744382e+001
3.646922e+002,7.512176e+001
3.666207e+002,7.124981e+001
3.685491e+002,6.497738e+001
3.704776e+002,5.888306e+001
3.724061e+002,5.246996e+001
3.743345e+002,4.645626e+001
3.762630e+002,4.311893e+001
3.781915e+002,4.519324e+001
3.801199e+002,4.675377e+001
3.820484e+002,4.464513e+001
3.839769e+002,3.606351e+001
3.859053e+002,3.065589e+001
3.878338e+002,3.021071e+001
3.897623e+002,3.283271e+001
3.916907e+002,3.521755e+001
3.936192e+002,3.693253e+001
3.955477e+002,3.914498e+001
3.974761e+002,4.267487e+001
3.994046e+002,4.805617e+001
4.013331e+002,5.141417e+001
4.032615e+002,5.259631e+001
4.051900e+002,5.202956e+001
4.071185e+002,4.974425e+001
4.090469e+002,4.481017e+001
4.109754e+002,4.105827e+001
4.129039e+002,3.984674e+001
4.148323e+002,4.076255e+001
4.167608e+002,4.110870e+001
4.186893e+002,3.982535e+001
4.206177e+002,3.891482e+001
4.225462e+002,3.971009e+001
4.244747e+002,4.260164e+001
4.264032e+002,4.431924e+001
4.283316e+002,4.298953e+001
4.302601e+002,4.054601e+001
4.321886e+002,4.042449e+001
4.341170e+002,4.397798e+001
4.360455e+002,4.736689e+001
4.379740e+002,4.811388e+001
4.399024e+002,4.657502e+001
4.418309e+002,4.872493e+001
4.437594e+002,5.483140e+001
4.456878e+002,6.459992e+001
4.476163e+002,7.831764e+001
4.495448e+002,9.542200e+001
4.514732e+002,1.168354e+002
4.534017e+002,1.515921e+002
4.553302e+002,1.910829e+002
4.572586e+002,2.147113e+002
4.591871e+002,2.170635e+002
4.611156e+002,2.084572e+002
4.630440e+002,1.854711e+002
4.649725e+002,1.486109e+002
4.669010e+002,1.182902e+002
4.688294e+002,1.009744e+002
4.707579e+002,8.916175e+001
4.726864e+002,7.693389e+001
4.746148e+002,5.954675e+001
4.765433e+002,4.776505e+001
4.784718e+002,4.564816e+001
4.804002e+002,5.009476e+001
4.823287e+002,5.234032e+001
4.842572e+002,5.062759e+001
4.861856e+002,4.852098e+001
4.881141e+002,4.763637e+001
4.900426e+002,4.857861e+001
4.919710e+002,4.867761e+001
4.938995e+002,4.669117e+001
4.958280e+002,4.465146e+001
4.977564e+002,4.464107e+001
4.996849e+002,4.766242e+001
5.016134e+002,4.972301e+001
5.035418e+002,4.765458e+001
5.054703e+002,4.327021e+001
5.073988e+002,4.461384e+001
5.093272e+002,5.633912e+001
5.112557e+002,6.843459e+001
5.131842e+002,7.828444e+001
5.151127e+002,8.614589e+001
5.170411e+002,8.945052e+001
5.189696e+002,8.409007e+001
5.208981e+002,7.621133e+001
5.228265e+002,7.076811e+001
5.247550e+002,6.977220e+001
5.266835e+002,6.718719e+001
5.286119e+002,6.031580e+001
5.305404e+002,5.152333e+001
5.324689e+002,4.488071e+001
5.343973e+002,4.109471e+001
5.363258e+002,3.914420e+001
5.382543e+002,3.932968e+001
5.401827e+002,4.187976e+001
5.421112e+002,4.385263e+001
5.440397e+002,4.512949e+001
5.459681e+002,4.582219e+001
5.478966e+002,4.577070e+001
5.498251e+002,4.437902e+001
5.517535e+002,4.430643e+001
5.536820e+002,4.738780e+001
5.556105e+002,5.143190e+001
5.575389e+002,5.271389e+001
5.594674e+002,5.027502e+001
5.613959e+002,4.767526e+001
5.633243e+002,4.627187e+001
5.652528e+002,4.570227e+001
5.671813e+002,4.433622e+001
5.691097e+002,4.009760e+001
5.710382e+002,3.678444e+001
5.729667e+002,3.629757e+001
5.748951e+002,3.889830e+001
5.768236e+002,4.152005e+001
5.787521e+002,4.409756e+001
5.806805e+002,4.641711e+001
5.826090e+002,4.779276e+001
5.845375e+002,4.540279e+001
5.864659e+002,4.793308e+001
5.883944e+002,5.935911e+001
5.903229e+002,7.552885e+001
5.922513e+002,8.932204e+001
5.941798e+002,1.036794e+002
5.961083e+002,1.104202e+002
5.980367e+002,1.015206e+002
5.999652e+002,7.907751e+001
6.018937e+002,6.782227e+001
6.038221e+002,7.084378e+001
6.057506e+002,8.155043e+001
6.076791e+002,1.040226e+002
6.096075e+002,1.384109e+002
6.115360e+002,1.582073e+002
6.134645e+002,1.529497e+002
6.153929e+002,1.357909e+002
6.173214e+002,1.153282e+002
6.192499e+002,8.567224e+001
6.211783e+002,6.456405e+001
6.231068e+002,5.724884e+001
6.250353e+002,5.759550e+001
6.269637e+002,5.611040e+001
6.288922e+002,5.201175e+001
6.308207e+002,4.820019e+001
6.327491e+002,4.541275e+001
6.346776e+002,4.355785e+001
6.366061e+002,4.257004e+001
6.385345e+002,4.274638e+001
6.404630e+002,4.343781e+001
6.423915e+002,4.489797e+001
6.443199e+002,4.695386e+001
6.462484e+002,4.818770e+001
6.481769e+002,4.826441e+001
6.501053e+002,4.765239e+001
6.520338e+002,4.621324e+001
6.539623e+002,4.275412e+001
6.558907e+002,4.216074e+001
6.578192e+002,4.593592e+001
6.597477e+002,5.150719e+001
6.616761e+002,5.645608e+001
6.636046e+002,6.055819e+001
6.655331e+002,6.524561e+001
6.674615e+002,7.189105e+001
6.693900e+002,7.902532e+001
6.713185e+002,8.473278e+001
6.732469e+002,9.151924e+001
6.751754e+002,9.362508e+001
6.771039e+002,8.758054e+001
6.790323e+002,7.615406e+001
6.809608e+002,6.690699e+001
6.828893e+002,5.923985e+001
6.848177e+002,5.492987e+001
6.867462e+002,5.654176e+001
6.886747e+002,6.363251e+001
6.906031e+002,6.600748e+001
6.925316e+002,5.870517e+001
6.944601e+002,5.157029e+001
6.963885e+002,4.931175e+001
6.983170e+002,5.163326e+001
7.002455e+002,5.292459e+001
7.021740e+002,5.265973e+001
7.041024e+002,5.110156e+001
7.060309e+002,4.792843e+001
7.079594e+002,4.181720e+001
7.098878e+002,3.846430e+001
7.118163e+002,4.012950e+001
7.137448e+002,4.301428e+001
7.156732e+002,4.289428e+001
7.176017e+002,3.884933e+001
7.195302e+002,3.808019e+001
7.214586e+002,4.580104e+001
7.233871e+002,5.574779e+001
7.253156e+002,6.085631e+001
7.272440e+002,5.333735e+001
7.291725e+002,5.478729e+001
7.311010e+002,7.159978e+001
7.330294e+002,9.752604e+001
7.349579e+002,1.240293e+002
7.368864e+002,1.581478e+002
7.388149e+002,1.767805e+002
7.407433e+002,1.622256e+002
7.426718e+002,1.273335e+002
7.446003e+002,9.932226e+001
7.465287e+002,8.067831e+001
7.484572e+002,6.710272e+001
7.503857e+002,5.928873e+001
7.523141e+002,5.653001e+001
7.542426e+002,5.505455e+001
7.561711e+002,5.602142e+001
7.580995e+002,5.647984e+001
7.600280e+002,5.353865e+001
7.619565e+002,4.834015e+001
7.638849e+002,4.765852e+001
7.658134e+002,5.659200e+001
7.677419e+002,6.565662e+001
7.696703e+002,7.198073e+001
7.715988e+002,7.545801e+001
7.735273e+002,7.872511e+001
7.754557e+002,8.430174e+001
7.773842e+002,8.685846e+001
7.793127e+002,8.189161e+001
7.812411e+002,7.009976e+001
7.831696e+002,6.183848e+001
7.850981e+002,6.084863e+001
7.870266e+002,6.135706e+001
7.889550e+002,6.105668e+001
7.908835e+002,5.975313e+001
7.928120e+002,5.887974e+001
7.947404e+002,5.478995e+001
7.966689e+002,5.424557e+001
7.985974e+002,6.193067e+001
8.005258e+002,7.778255e+001
8.024543e+002,9.460216e+001
8.043828e+002,1.114112e+002
8.063112e+002,1.287434e+002
8.082397e+002,1.482540e+002
8.101682e+002,1.727177e+002
8.120966e+002,1.884028e+002
8.140251e+002,1.880187e+002
8.159536e+002,1.843896e+002
8.178820e+002,1.871906e+002
8.198105e+002,1.966711e+002
8.217390e+002,2.031596e+002
8.236674e+002,2.092400e+002
8.255959e+002,2.084301e+002
8.275244e+002,1.945331e+002
8.294528e+002,1.591233e+002
8.313813e+002,1.318714e+002
8.333098e+002,1.123948e+002
8.352382e+002,1.007023e+002
8.371667e+002,9.947131e+001
8.390952e+002,1.087495e+002
8.410236e+002,1.168834e+002
8.429521e+002,1.236228e+002
8.448806e+002,1.266419e+002
8.468090e+002,1.238095e+002
8.487375e+002,1.125481e+002
8.506660e+002,1.018587e+002
8.525944e+002,9.136511e+001
8.545229e+002,8.179285e+001
8.564514e+002,7.368501e+001
8.583798e+002,6.696559e+001
8.603083e+002,6.182704e+001
8.622368e+002,5.859534e+001
8.641652e+002,5.686010e+001
8.660937e+002,5.630887e+001
8.680222e+002,5.701335e+001
8.699506e+002,5.864098e+001
8.718791e+002,6.331601e+001
8.738076e+002,6.712024e+001
8.757360e+002,6.688332e+001
8.776645e+002,6.199507e+001
8.795930e+002,5.822576e+001
8.815214e+002,5.592267e+001
8.834499e+002,5.491207e+001
8.853784e+002,5.567282e+001
8.873068e+002,5.826197e+001
8.892353e+002,5.944624e+001
8.911638e+002,5.523534e+001
8.930922e+002,5.269855e+001
8.950207e+002,5.576710e+001
8.969492e+002,6.525951e+001
8.988776e+002,7.405090e+001
9.008061e+002,8.382463e+001
9.027346e+002,9.134812e+001
9.046630e+002,9.506768e+001
9.065915e+002,9.539574e+001
9.085200e+002,9.242475e+001
9.104484e+002,8.400318e+001
9.123769e+002,7.517233e+001
9.143054e+002,6.740402e+001
9.162338e+002,6.071676e+001
9.181623e+002,5.597924e+001
9.200908e+002,5.309505e+001
9.220192e+002,5.194880e+001
9.239477e+002,5.288955e+001
9.258762e+002,5.570870e+001
9.278046e+002,5.939128e+001
9.297331e+002,6.416195e+001
9.316616e+002,6.931208e+001
9.335900e+002,7.442973e+001
9.355185e+002,7.965572e+001
9.374470e+002,8.553688e+001
9.393754e+002,9.428374e+001
9.413039e+002,1.006773e+002
9.432324e+002,1.048475e+002
9.451608e+002,1.060407e+002
9.470893e+002,1.018423e+002
9.490178e+002,9.014259e+001
9.509462e+002,7.984238e+001
9.528747e+002,7.304536e+001
9.548032e+002,6.885316e+001
9.567316e+002,6.642105e+001
9.586601e+002,6.615057e+001
9.605886e+002,6.626796e+001
9.625170e+002,6.666004e+001
9.644455e+002,6.713979e+001
9.663740e+002,6.714158e+001
9.683024e+002,6.519827e+001
9.702309e+002,6.687481e+001
9.721594e+002,7.064635e+001
9.740878e+002,7.927429e+001
9.760163e+002,9.507597e+001
9.779448e+002,1.175530e+002
9.798733e+002,1.444123e+002
9.818018e+002,1.683128e+002
9.837302e+002,2.056469e+002
9.856587e+002,2.619405e+002
9.875872e+002,3.368631e+002
9.895156e+002,4.321026e+002
9.914441e+002,6.157726e+002
9.933726e+002,7.430491e+002
9.953010e+002,7.593679e+002
9.972295e+002,6.796510e+002
9.991580e+002,5.652078e+002
1.001086e+003,3.861165e+002
1.003015e+003,2.346669e+002
1.004943e+003,1.489133e+002
1.006872e+003,1.089169e+002
1.008800e+003,8.953220e+001
1.010729e+003,9.808159e+001
1.012657e+003,1.099216e+002
1.014586e+003,1.190747e+002
1.016514e+003,1.298208e+002
1.018443e+003,1.477020e+002
1.020371e+003,1.776855e+002
1.022300e+003,2.025443e+002
1.024228e+003,2.296986e+002
1.026156e+003,2.454386e+002
1.028085e+003,2.352169e+002
1.030013e+003,2.018367e+002
1.031942e+003,1.684796e+002
1.033870e+003,1.338365e+002
1.035799e+003,1.054901e+002
1.037727e+003,8.753191e+001
1.039656e+003,7.939487e+001
1.041584e+003,7.290265e+001
1.043513e+003,6.821896e+001
1.045441e+003,6.501762e+001
1.047370e+003,6.331436e+001
1.049298e+003,6.310009e+001
1.051227e+003,6.478750e+001
1.053155e+003,6.959868e+001
1.055083e+003,7.275875e+001
1.057012e+003,7.118282e+001
1.058940e+003,6.854613e+001
1.060869e+003,6.893088e+001
1.062797e+003,7.312835e+001
1.064726e+003,7.525896e+001
1.066654e+003,7.237749e+001
1.068583e+003,6.875230e+001
1.070511e+003,6.675774e+001
1.072440e+003,6.660095e+001
1.074368e+003,6.574055e+001
1.076297e+003,6.293683e+001
1.078225e+003,6.093581e+001
1.080154e+003,6.140982e+001
1.082082e+003,6.344690e+001
1.084010e+003,6.438239e+001
1.085939e+003,6.400213e+001
1.087867e+003,6.315714e+001
1.089796e+003,6.168045e+001
1.091724e+003,6.006232e+001
1.093653e+003,5.875837e+001
1.095581e+003,5.754441e+001
1.097510e+003,5.730823e+001
1.099438e+003,5.864408e+001
1.101367e+003,6.045481e+001
1.103295e+003,6.244004e+001
1.105224e+003,6.470157e+001
1.107152e+003,6.550587e+001
1.109081e+003,6.394125e+001
1.111009e+003,6.207850e+001
1.112938e+003,5.973076e+001
1.114866e+003,5.775238e+001
1.116794e+003,5.811276e+001
1.118723e+003,6.133083e+001
1.120651e+003,6.557268e+001
1.122580e+003,7.289997e+001
1.124508e+003,7.941502e+001
1.126437e+003,8.033855e+001
1.128365e+003,7.309562e+001
1.130294e+003,6.840855e+001
1.132222e+003,6.650468e+001
1.134151e+003,6.735463e+001
1.136079e+003,7.167328e+001
1.138008e+003,7.936090e+001
1.139936e+003,8.733512e+001
1.141865e+003,9.582436e+001
1.143793e+003,1.041801e+002
1.145721e+003,1.153290e+002
1.147650e+003,1.248290e+002
1.149578e+003,1.246736e+002
1.151507e+003,1.118477e+002
1.153435e+003,1.026262e+002
1.155364e+003,1.050248e+002
1.157292e+003,1.091008e+002
1.159221e+003,1.083313e+002
1.161149e+003,1.019254e+002
1.163078e+003,9.699574e+001
1.165006e+003,9.255827e+001
1.166935e+003,9.067057e+001
1.168863e+003,9.172585e+001
1.170792e+003,9.583896e+001
1.172720e+003,1.044973e+002
1.174648e+003,1.213707e+002
1.176577e+003,1.327413e+002
1.178505e+003,1.342757e+002
1.180434e+003,1.300890e+002
1.182362e+003,1.221275e+002
1.184291e+003,1.105956e+002
1.186219e+003,1.017171e+002
1.188148e+003,9.485698e+001
1.190076e+003,9.318546e+001
1.192005e+003,9.624200e+001
1.193933e+003,1.051002e+002
1.195862e+003,1.237062e+002
1.197790e+003,1.603249e+002
1.199719e+003,1.938342e+002
1.201647e+003,2.275577e+002
1.203575e+003,2.537599e+002
1.205504e+003,2.651272e+002
1.207432e+003,2.602443e+002
1.209361e+003,2.459506e+002
1.211289e+003,2.138050e+002
1.213218e+003,1.824758e+002
1.215146e+003,1.598358e+002
1.217075e+003,1.435395e+002
1.219003e+003,1.291601e+002
1.220932e+003,1.169520e+002
1.222860e+003,1.054446e+002
1.224789e+003,9.311288e+001
1.226717e+003,8.226756e+001
1.228646e+003,7.463676e+001
1.230574e+003,7.031368e+001
1.232502e+003,6.809500e+001
1.234431e+003,7.035418e+001
1.236359e+003,7.189973e+001
1.238288e+003,7.099877e+001
1.240216e+003,6.855441e+001
1.242145e+003,6.614781e+001
1.244073e+003,6.292602e+001
1.246002e+003,6.200571e+001
1.247930e+003,6.703865e+001
1.249859e+003,7.148984e+001
1.251787e+003,6.960363e+001
1.253716e+003,6.309711e+001
1.255644e+003,5.955612e+001
1.257573e+003,6.027118e+001
1.259501e+003,6.207874e+001
1.261429e+003,6.433724e+001
1.263358e+003,6.682573e+001
1.265286e+003,6.972146e+001
1.267215e+003,7.339023e+001
1.269143e+003,7.490736e+001
1.271072e+003,6.952528e+001
1.273000e+003,6.660815e+001
1.274929e+003,7.065671e+001
1.276857e+003,7.999642e+001
1.278786e+003,8.897562e+001
1.280714e+003,9.912494e+001
1.282643e+003,1.067323e+002
1.284571e+003,1.099954e+002
1.286500e+003,1.121655e+002
1.288428e+003,1.136448e+002
1.290356e+003,1.151564e+002
1.292285e+003,1.249808e+002
1.294213e+003,1.482088e+002
1.296142e+003,1.706861e+002
1.298070e+003,1.947035e+002
1.299999e+003,2.107261e+002
1.301927e+003,2.047946e+002
1.303856e+003,1.752610e+002
1.305784e+003,1.508817e+002
1.307713e+003,1.372196e+002
1.309641e+003,1.280666e+002
1.311570e+003,1.220873e+002
1.313498e+003,1.182970e+002
1.315427e+003,1.136264e+002
1.317355e+003,1.053770e+002
1.319283e+003,1.023720e+002
1.321212e+003,1.082763e+002
1.323140e+003,1.164839e+002
1.325069e+003,1.236547e+002
1.326997e+003,1.297572e+002
1.328926e+003,1.344411e+002
1.330854e+003,1.382468e+002
1.332783e+003,1.399572e+002
1.334711e+003,1.399574e+002
1.336640e+003,1.373790e+002
1.338568e+003,1.299879e+002
1.340497e+003,1.183399e+002
1.342425e+003,1.088812e+002
1.344354e+003,1.036168e+002
1.346282e+003,9.778578e+001
1.348210e+003,8.664523e+001
1.350139e+003,7.556678e+001
1.352068e+003,7.136153e+001
1.353996e+003,7.442553e+001
1.355924e+003,7.823209e+001
1.357853e+003,8.410423e+001
1.359781e+003,8.735545e+001
1.361710e+003,8.454169e+001
1.363638e+003,7.845397e+001
1.365567e+003,7.450564e+001
1.367495e+003,7.268649e+001
1.369424e+003,7.316149e+001
1.371352e+003,7.906387e+001
1.373281e+003,8.376614e+001
1.375209e+003,8.314133e+001
1.377138e+003,7.890199e+001
1.379066e+003,7.658678e+001
1.380995e+003,7.676436e+001
1.382923e+003,7.768408e+001
1.384851e+003,8.024157e+001
1.386780e+003,8.252733e+001
1.388708e+003,8.201137e+001
1.390637e+003,8.003898e+001
1.392565e+003,8.216380e+001
1.394494e+003,8.937160e+001
1.396422e+003,9.757520e+001
1.398351e+003,1.082047e+002
1.400279e+003,1.173648e+002
1.402208e+003,1.230081e+002
1.404136e+003,1.250481e+002
1.406065e+003,1.219804e+002
1.407993e+003,1.118650e+002
1.409922e+003,1.022138e+002
1.411850e+003,9.442063e+001
1.413778e+003,8.862418e+001
1.415707e+003,8.407487e+001
1.417635e+003,8.113300e+001
1.419564e+003,8.343999e+001
1.421492e+003,9.100981e+001
1.423421e+003,1.043560e+002
1.425349e+003,1.302681e+002
1.427278e+003,1.560505e+002
1.429206e+003,1.706684e+002
1.431135e+003,1.741801e+002
1.433063e+003,1.783540e+002
1.434992e+003,1.899542e+002
1.436920e+003,1.925150e+002
1.438849e+003,1.788366e+002
1.440777e+003,1.598230e+002
1.442705e+003,1.432390e+002
1.444634e+003,1.292184e+002
1.446562e+003,1.179053e+002
1.448491e+003,1.095111e+002
1.450419e+003,1.032113e+002
1.452348e+003,9.974054e+001
1.454276e+003,9.757430e+001
1.456205e+003,9.568492e+001
1.458133e+003,9.404826e+001
1.460062e+003,9.249791e+001
1.461990e+003,9.058112e+001
1.463919e+003,8.994908e+001
1.465847e+003,9.158428e+001
1.467776e+003,9.424010e+001
1.469704e+003,9.693510e+001
1.471632e+003,9.989954e+001
1.473561e+003,1.043452e+002
1.475489e+003,1.110959e+002
1.477418e+003,1.166250e+002
1.479346e+003,1.200800e+002
1.481275e+003,1.218075e+002
1.483203e+003,1.219297e+002
1.485132e+003,1.205171e+002
1.487060e+003,1.178384e+002
1.488989e+003,1.135927e+002
1.490917e+003,1.090870e+002
1.492846e+003,1.033676e+002
1.494774e+003,9.885451e+001
1.496703e+003,9.803259e+001
1.498631e+003,9.927779e+001
1.500559e+003,9.752880e+001
1.502488e+003,9.129855e+001
1.504416e+003,8.634599e+001
1.506345e+003,8.335167e+001
1.508273e+003,8.133443e+001
1.510202e+003,7.951425e+001
1.512130e+003,7.852501e+001
1.514059e+003,7.998751e+001
1.515987e+003,8.553966e+001
1.517916e+003,8.853481e+001
1.519844e+003,8.744847e+001
1.521773e+003,8.605934e+001
1.523701e+003,8.604900e+001
1.525630e+003,8.606218e+001
1.527558e+003,8.370390e+001
1.529486e+003,7.842604e+001
1.531415e+003,7.568796e+001
1.533343e+003,7.784597e+001
1.535272e+003,7.916813e+001
1.537200e+003,7.761631e+001
1.539129e+003,7.546830e+001
1.541057e+003,7.446303e+001
1.542986e+003,7.468572e+001
1.544914e+003,7.638535e+001
1.546843e+003,8.027293e+001
1.548771e+003,8.390553e+001
1.550700e+003,8.863038e+001
1.552628e+003,9.119022e+001
1.554557e+003,8.728646e+001
1.556485e+003,7.985060e+001
1.558413e+003,7.658456e+001
1.560342e+003,7.793543e+001
1.562270e+003,8.073106e+001
1.564199e+003,8.532580e+001
1.566127e+003,8.996919e+001
1.568056e+003,9.012864e+001
1.569984e+003,9.201995e+001
1.571913e+003,1.050872e+002
1.573841e+003,1.288517e+002
1.575770e+003,1.531078e+002
1.577698e+003,1.833901e+002
1.579627e+003,1.986652e+002
1.581555e+003,1.797020e+002
1.583484e+003,1.527785e+002
1.585412e+003,1.350270e+002
1.587340e+003,1.269350e+002
1.589269e+003,1.329197e+002
1.591197e+003,1.574219e+002
1.593126e+003,1.786078e+002
1.595054e+003,1.923388e+002
1.596983e+003,2.002086e+002
1.598911e+003,2.027617e+002
1.600840e+003,2.003300e+002
1.602768e+003,1.929893e+002
1.604697e+003,1.804869e+002
1.606625e+003,1.655059e+002
1.608554e+003,1.437896e+002
1.610482e+003,1.281401e+002
1.612411e+003,1.262860e+002
1.614339e+003,1.295348e+002
1.616267e+003,1.315239e+002
1.618196e+003,1.322477e+002
1.620124e+003,1.312299e+002
1.622053e+003,1.284479e+002
1.623981e+003,1.240404e+002
1.625910e+003,1.162077e+002
1.627838e+003,1.086464e+002
1.629767e+003,1.027942e+002
1.631695e+003,9.843629e+001
1.633624e+003,9.547844e+001
1.635552e+003,9.414016e+001
1.637481e+003,9.251761e+001
1.639409e+003,9.067212e+001
1.641338e+003,8.827563e+001
1.643266e+003,8.394772e+001
1.645194e+003,8.028954e+001
1.647123e+003,7.986272e+001
1.649051e+003,8.206163e+001
1.650980e+003,8.365746e+001
1.652908e+003,8.518893e+001
1.654837e+003,8.437677e+001
1.656765e+003,7.786648e+001
1.658694e+003,7.267428e+001
1.660622e+003,7.168129e+001
1.662551e+003,7.302757e+001
1.664479e+003,7.475788e+001
1.666408e+003,7.695667e+001
1.668336e+003,7.847108e+001
1.670265e+003,7.905068e+001
1.672193e+003,7.956314e+001
1.674121e+003,8.040870e+001
1.676050e+003,8.092815e+001
1.677978e+003,8.050719e+001
1.679907e+003,7.952965e+001
1.681835e+003,7.865389e+001
1.683764e+003,7.762467e+001
1.685692e+003,7.785191e+001
1.687621e+003,8.166152e+001
1.689549e+003,8.304530e+001
1.691478e+003,7.740501e+001
1.693406e+003,7.239162e+001
1.695335e+003,7.498924e+001
1.697263e+003,8.256226e+001
1.699192e+003,8.622548e+001
1.701120e+003,8.502418e+001
1.703048e+003,8.346529e+001
1.704977e+003,8.099469e+001
1.706905e+003,7.917932e+001
1.708834e+003,7.822189e+001
1.710762e+003,7.815611e+001
1.712691e+003,7.951628e+001
1.714619e+003,8.191543e+001
1.716548e+003,8.342001e+001
1.718476e+003,8.432169e+001
1.720405e+003,8.352747e+001
1.722333e+003,7.903292e+001
1.724262e+003,7.548505e+001
1.726190e+003,7.399766e+001
1.728119e+003,7.424352e+001
1.730047e+003,7.668927e+001
1.731975e+003,8.087776e+001
1.733904e+003,8.339710e+001
1.735832e+003,8.395363e+001
1.737761e+003,8.384408e+001
1.739689e+003,8.333586e+001
1.741618e+003,8.203281e+001
1.743546e+003,7.958852e+001
1.745475e+003,7.648365e+001
1.747403e+003,7.215845e+001
1.749332e+003,6.718044e+001
1.751260e+003,6.650568e+001
1.753189e+003,7.144677e+001
1.755117e+003,7.505096e+001
1.757046e+003,7.499490e+001
1.758974e+003,7.568463e+001
1.760902e+003,8.177800e+001
1.762831e+003,8.679205e+001
1.764759e+003,8.205229e+001
1.766688e+003,7.075509e+001
1.768616e+003,6.869554e+001
1.770545e+003,7.825832e+001
1.772473e+003,8.354050e+001
1.774402e+003,7.944259e+001
1.776330e+003,7.559683e+001
1.778259e+003,7.629109e+001
1.780187e+003,7.824013e+001
1.782116e+003,7.869093e+001
1.784044e+003,7.838068e+001
1.785973e+003,7.980047e+001
1.787901e+003,8.321710e+001
1.789829e+003,8.474442e+001
1.791758e+003,8.320507e+001
1.793686e+003,8.138674e+001
1.795615e+003,8.010468e+001
1.797543e+003,7.903217e+001
1.799472e+003,7.832206e+001
1.801400e+003,7.749442e+001
1.803329e+003,7.481979e+001
1.805257e+003,7.042509e+001
1.807186e+003,6.962033e+001
1.809114e+003,7.430701e+001
1.811043e+003,7.838437e+001
1.812971e+003,8.027463e+001
1.814900e+003,8.096362e+001
1.816828e+003,8.045595e+001
1.818756e+003,7.940259e+001
1.820685e+003,7.824541e+001
1.822613e+003,7.718272e+001
1.824542e+003,7.828889e+001
1.826470e+003,8.282072e+001
1.828399e+003,8.520263e+001
1.830327e+003,8.267776e+001
1.832256e+003,8.035052e+001
1.834184e+003,7.998129e+001
1.836113e+003,8.070764e+001
1.838041e+003,8.315556e+001
1.839970e+003,8.606886e+001
1.841898e+003,8.371851e+001
1.843827e+003,7.275900e+001
1.845755e+003,6.906679e+001
1.847684e+003,8.007356e+001
1.849612e+003,8.738760e+001
1.851541e+003,8.492638e+001
1.853469e+003,8.078594e+001
1.855397e+003,7.974831e+001
1.857326e+003,8.028703e+001
1.859254e+003,7.979654e+001
1.861183e+003,7.825213e+001
1.863111e+003,7.748168e+001
1.865040e+003,7.779826e+001
1.866968e+003,7.827070e+001
1.868897e+003,7.889248e+001
1.870825e+003,7.964489e+001
1.872754e+003,8.079150e+001
1.874682e+003,8.184496e+001
1.876611e+003,8.217369e+001
1.878539e+003,8.212085e+001
1.880468e+003,8.286875e+001
1.882396e+003,8.450918e+001
1.884324e+003,8.509707e+001
1.886253e+003,8.374574e+001
1.888181e+003,8.355986e+001
1.890110e+003,8.661320e+001
1.892038e+003,8.904343e+001
1.893967e+003,8.802625e+001
1.895895e+003,8.607362e+001
1.897824e+003,8.659066e+001
1.899752e+003,8.824534e+001
1.901681e+003,8.575879e+001
1.903609e+003,7.861658e+001
1.905538e+003,7.552055e+001
1.907466e+003,7.892897e+001
1.909395e+003,8.282446e+001
1.911323e+003,8.672818e+001
1.913251e+003,8.910703e+001
1.915180e+003,8.792757e+001
1.917108e+003,8.553056e+001
1.919037e+003,8.559558e+001
1.920965e+003,8.737308e+001
1.922894e+003,8.580857e+001
1.924822e+003,7.917177e+001
1.926751e+003,7.591933e+001
1.928679e+003,7.919418e+001
1.930608e+003,8.163917e+001
1.932536e+003,8.080366e+001
1.934465e+003,8.008806e+001
1.936393e+003,8.197923e+001
1.938322e+003,8.469628e+001
1.940250e+003,8.546178e+001
1.942178e+003,8.467384e+001
1.944107e+003,8.560129e+001
1.946035e+003,8.892808e+001
1.947964e+003,9.107610e+001
1.949892e+003,9.120795e+001
1.951821e+003,9.155435e+001
1.953749e+003,9.390555e+001
1.955678e+003,9.503061e+001
1.957606e+003,9.194550e+001
1.959535e+003,8.796845e+001
1.961463e+003,8.644904e+001
1.963392e+003,8.708145e+001
1.965320e+003,8.990724e+001
1.967249e+003,9.497666e+001
1.969177e+003,9.623056e+001
1.971105e+003,9.135889e+001
1.973034e+003,8.828248e+001
1.974962e+003,8.969814e+001
1.976891e+003,9.242790e+001
1.978819e+003,9.721278e+001
1.980748e+003,1.007268e+002
1.982676e+003,9.770794e+001
1.984605e+003,9.160439e+001
1.986533e+003,9.189417e+001
1.988462e+003,9.916374e+001
1.990390e+003,1.018541e+002
1.992319e+003,9.616670e+001
1.994247e+003,9.258598e+001
1.996176e+003,9.181883e+001
1.998104e+003,9.235943e+001
2.000032e+003,9.612438e+001
2.001961e+003,9.857654e+001
2.003889e+003,9.406813e+001
2.005818e+003,8.810255e+001
2.007746e+003,9.070290e+001
2.009675e+003,9.972044e+001
2.011603e+003,1.006709e+002
2.013532e+003,9.254584e+001
2.015460e+003,8.858486e+001
2.017389e+003,9.160813e+001
2.019317e+003,9.387273e+001
2.021246e+003,9.228340e+001
2.023174e+003,9.144731e+001
2.025103e+003,9.439095e+001
2.027031e+003,9.823959e+001
2.028959e+003,1.011260e+002
2.030888e+003,1.028995e+002
2.032816e+003,1.025033e+002
2.034745e+003,1.001820e+002
2.036673e+003,1.006941e+002
2.038602e+003,1.063225e+002
2.040530e+003,1.081375e+002
2.042459e+003,1.034404e+002
2.044387e+003,9.885999e+001
2.046316e+003,9.396853e+001
2.048244e+003,9.125279e+001
2.050173e+003,9.347504e+001
2.052101e+003,9.686829e+001
2.054030e+003,9.765143e+001
2.055958e+003,9.699506e+001
2.057886e+003,9.713306e+001
2.059815e+003,9.818589e+001
2.061743e+003,1.022257e+002
2.063672e+003,1.100262e+002
2.065600e+003,1.144942e+002
2.067529e+003,1.135535e+002
2.069457e+003,1.121598e+002
2.071386e+003,1.122479e+002
2.073314e+003,1.116026e+002
2.075243e+003,1.075678e+002
2.077171e+003,1.038814e+002
2.079100e+003,1.047920e+002
2.081028e+003,1.080565e+002
2.082957e+003,1.093693e+002
2.084885e+003,1.088453e+002
2.086813e+003,1.079258e+002
2.088742e+003,1.059543e+002
2.090670e+003,1.055915e+002
2.092599e+003,1.087814e+002
2.094527e+003,1.095264e+002
2.096456e+003,1.038729e+002
2.098384e+003,1.002768e+002
2.100313e+003,1.033852e+002
2.102241e+003,1.077797e+002
2.104170e+003,1.115450e+002
2.106098e+003,1.134039e+002
2.108027e+003,1.089874e+002
2.109955e+003,1.017054e+002
2.111884e+003,1.038291e+002
2.113812e+003,1.154012e+002
2.115740e+003,1.196614e+002
2.117669e+003,1.129047e+002
2.119597e+003,1.079835e+002
2.121526e+003,1.069243e+002
2.123454e+003,1.069329e+002
2.125383e+003,1.068440e+002
2.127311e+003,1.084344e+002
2.129240e+003,1.155676e+002
2.131168e+003,1.217686e+002
2.133097e+003,1.178350e+002
2.135025e+003,1.107559e+002
2.136954e+003,1.164735e+002
2.138882e+003,1.309211e+002
2.140811e+003,1.315962e+002
2.142739e+003,1.182061e+002
2.144667e+003,1.123739e+002
2.146596e+003,1.180322e+002
2.148524e+003,1.214299e+002
2.150453e+003,1.190942e+002
2.152381e+003,1.157859e+002
2.154310e+003,1.107127e+002
2.156238e+003,1.078587e+002
2.158167e+003,1.117069e+002
2.160095e+003,1.162300e+002
2.162024e+003,1.155447e+002
2.163952e+003,1.121289e+002
2.165881e+003,1.100377e+002
2.167809e+003,1.090641e+002
2.169738e+003,1.076921e+002
2.171666e+003,1.058498e+002
2.173594e+003,1.068038e+002
2.175523e+003,1.116207e+002
2.177451e+003,1.132661e+002
2.179380e+003,1.095256e+002
2.181308e+003,1.056934e+002
2.183237e+003,1.014823e+002
2.185165e+003,1.003483e+002
2.187094e+003,1.073816e+002
2.189022e+003,1.140268e+002
2.190951e+003,1.123414e+002
2.192879e+003,1.081288e+002
2.194808e+003,1.089614e+002
2.196736e+003,1.131555e+002
2.198665e+003,1.167951e+002
2.200593e+003,1.197629e+002
2.202521e+003,1.191420e+002
2.204450e+003,1.146345e+002
2.206378e+003,1.097234e+002
2.208307e+003,1.042351e+002
2.210235e+003,1.007939e+002
2.212164e+003,1.006816e+002
2.214092e+003,1.009822e+002
2.216021e+003,1.000865e+002
2.217949e+003,1.002698e+002
2.219878e+003,1.031013e+002
2.221806e+003,1.068248e+002
2.223735e+003,1.116387e+002
2.225663e+003,1.152739e+002
2.227592e+003,1.133868e+002
2.229520e+003,1.082527e+002
2.231448e+003,1.062776e+002
2.233377e+003,1.071625e+002
2.235305e+003,1.084814e+002
2.237234e+003,1.102968e+002
2.239162e+003,1.084180e+002
2.241091e+003,1.008648e+002
2.243019e+003,9.957108e+001
2.244948e+003,1.109229e+002
2.246876e+003,1.188109e+002
2.248805e+003,1.172414e+002
2.250733e+003,1.137112e+002
2.252662e+003,1.085987e+002
2.254590e+003,1.052618e+002
2.256519e+003,1.074800e+002
2.258447e+003,1.109524e+002
2.260375e+003,1.113038e+002
2.262304e+003,1.101460e+002
2.264232e+003,1.094501e+002
2.266161e+003,1.096719e+002
2.268089e+003,1.138323e+002
2.270018e+003,1.209091e+002
2.271946e+003,1.209275e+002
2.273875e+003,1.122173e+002
2.275803e+003,1.080335e+002
2.277732e+003,1.114194e+002
2.279660e+003,1.146067e+002
2.281589e+003,1.175007e+002
2.283517e+003,1.194608e+002
2.285446e+003,1.203576e+002
2.287374e+003,1.203807e+002
2.289302e+003,1.199817e+002
2.291231e+003,1.181509e+002
2.293159e+003,1.107684e+002
2.295088e+003,1.053741e+002
2.297016e+003,1.101796e+002
2.298945e+003,1.195723e+002
2.300873e+003,1.279287e+002
2.302802e+003,1.341700e+002
2.304730e+003,1.350990e+002
2.306659e+003,1.312193e+002
2.308587e+003,1.255582e+002
2.310516e+003,1.171075e+002
2.312444e+003,1.164080e+002
2.314373e+003,1.252627e+002
2.316301e+003,1.314606e+002
2.318229e+003,1.342669e+002
2.320158e+003,1.329846e+002
2.322086e+003,1.250531e+002
2.324015e+003,1.194214e+002
2.325943e+003,1.203864e+002
2.327872e+003,1.220173e+002
2.329800e+003,1.215280e+002
2.331729e+003,1.217478e+002
2.333657e+003,1.255631e+002
2.335586e+003,1.293986e+002
2.337514e+003,1.304931e+002
2.339443e+003,1.295102e+002
2.341371e+003,1.262823e+002
2.343300e+003,1.221316e+002
2.345228e+003,1.196317e+002
2.347156e+003,1.184320e+002
2.349085e+003,1.169633e+002
2.351013e+003,1.154425e+002
2.352942e+003,1.168244e+002
2.354870e+003,1.216721e+002
2.356799e+003,1.262956e+002
2.358727e+003,1.320825e+002
2.360656e+003,1.333152e+002
2.362584e+003,1.273341e+002
2.364513e+003,1.241371e+002
2.366441e+003,1.256955e+002
2.368370e+003,1.288908e+002
2.370298e+003,1.344090e+002
2.372227e+003,1.383511e+002
2.374155e+003,1.388936e+002
2.376083e+003,1.377668e+002
2.378012e+003,1.340804e+002
2.379940e+003,1.311837e+002
2.381869e+003,1.326858e+002
2.383797e+003,1.350143e+002
2.385726e+003,1.345115e+002
2.387654e+003,1.326850e+002
2.389583e+003,1.319688e+002
2.391511e+003,1.313901e+002
2.393440e+003,1.270397e+002
2.395368e+003,1.213369e+002
2.397297e+003,1.244825e+002
2.399225e+003,1.354802e+002
2.401154e+003,1.403838e+002
2.403082e+003,1.382167e+002
2.405010e+003,1.372784e+002
2.406939e+003,1.375935e+002
2.408867e+003,1.398520e+002
2.410796e+003,1.455199e+002
2.412724e+003,1.449196e+002
2.414653e+003,1.331982e+002
2.416581e+003,1.274969e+002
2.418510e+003,1.355666e+002
2.420438e+003,1.428121e+002
2.422367e+003,1.462720e+002
2.424295e+003,1.466285e+002
2.426224e+003,1.408734e+002
2.428152e+003,1.364547e+002
2.430081e+003,1.381299e+002
2.432009e+003,1.406198e+002
2.433938e+003,1.414201e+002
2.435866e+003,1.413223e+002
2.437794e+003,1.402583e+002
2.439723e+003,1.393086e+002
2.441651e+003,1.406790e+002
2.443580e+003,1.420934e+002
2.445508e+003,1.392787e+002
2.447437e+003,1.341287e+002
2.449365e+003,1.303391e+002
2.451294e+003,1.280901e+002
2.453222e+003,1.283692e+002
2.455151e+003,1.308292e+002
2.457079e+003,1.350309e+002
2.459008e+003,1.404410e+002
2.460936e+003,1.396418e+002
2.462865e+003,1.311332e+002
2.464793e+003,1.275093e+002
2.466721e+003,1.301931e+002
2.468650e+003,1.333812e+002
2.470578e+003,1.376228e+002
2.472507e+003,1.397345e+002
2.474435e+003,1.389852e+002
2.476364e+003,1.376238e+002
2.478292e+003,1.357203e+002
2.480221e+003,1.342805e+002
2.482149e+003,1.335363e+002
2.484078e+003,1.334412e+002
2.486006e+003,1.368125e+002
2.487935e+003,1.365958e+002
2.489863e+003,1.246183e+002
2.491792e+003,1.175224e+002
2.493720e+003,1.256606e+002
2.495648e+003,1.335101e+002
2.497577e+003,1.301269e+002
2.499505e+003,1.267027e+002
2.501434e+003,1.324987e+002
2.503362e+003,1.392284e+002
2.505291e+003,1.394943e+002
2.507219e+003,1.378293e+002
2.509148e+003,1.387624e+002
2.511076e+003,1.405286e+002
2.513005e+003,1.419254e+002
2.514933e+003,1.419452e+002
2.516862e+003,1.372034e+002
2.518790e+003,1.312429e+002
2.520719e+003,1.317742e+002
2.522647e+003,1.360146e+002
2.524575e+003,1.359850e+002
2.526504e+003,1.331707e+002
2.528432e+003,1.337329e+002
2.530361e+003,1.371862e+002
2.532289e+003,1.415591e+002
2.534218e+003,1.463235e+002
2.536146e+003,1.480256e+002
2.538075e+003,1.466097e+002
2.540003e+003,1.467422e+002
2.541932e+003,1.491330e+002
2.543860e+003,1.468080e+002
2.545789e+003,1.386113e+002
2.547717e+003,1.336330e+002
2.549646e+003,1.323314e+002
2.551574e+003,1.322952e+002
2.553502e+003,1.333099e+002
2.555431e+003,1.355325e+002
2.557359e+003,1.395441e+002
2.559288e+003,1.430401e+002
2.561216e+003,1.451800e+002
2.563145e+003,1.480565e+002
2.565073e+003,1.526513e+002
2.567002e+003,1.553856e+002
2.568930e+003,1.551107e+002
2.570859e+003,1.546788e+002
2.572787e+003,1.540407e+002
2.574716e+003,1.551139e+002
2.576644e+003,1.621401e+002
2.578573e+003,1.648761e+002
2.580501e+003,1.574655e+002
2.582429e+003,1.502899e+002
2.584358e+003,1.447559e+002
2.586287e+003,1.424937e+002
2.588215e+003,1.486497e+002
2.590144e+003,1.504449e+002
2.592072e+003,1.359443e+002
2.594000e+003,1.244639e+002
2.595929e+003,1.262383e+002
2.597857e+003,1.324327e+002
2.599786e+003,1.428110e+002
2.601714e+003,1.502081e+002
2.603643e+003,1.497384e+002
2.605571e+003,1.464091e+002
2.607500e+003,1.420579e+002
2.609428e+003,1.379620e+002
2.611357e+003,1.332452e+002
2.613285e+003,1.314181e+002
2.615214e+003,1.387687e+002
2.617142e+003,1.465078e+002
2.619071e+003,1.470731e+002
2.620999e+003,1.443630e+002
2.622927e+003,1.394079e+002
2.624856e+003,1.353236e+002
2.626784e+003,1.357406e+002
2.628713e+003,1.382785e+002
2.630641e+003,1.428254e+002
2.632570e+003,1.455251e+002
2.634498e+003,1.388905e+002
2.636427e+003,1.301773e+002
2.638355e+003,1.275628e+002
2.640284e+003,1.288817e+002
2.642212e+003,1.334780e+002
2.644141e+003,1.384497e+002
2.646069e+003,1.395578e+002
2.647998e+003,1.379971e+002
2.649926e+003,1.332260e+002
2.651854e+003,1.289626e+002
2.653783e+003,1.337791e+002
2.655711e+003,1.416976e+002
2.657640e+003,1.433203e+002
2.659568e+003,1.412072e+002
2.661497e+003,1.392190e+002
2.663425e+003,1.375987e+002
2.665354e+003,1.371945e+002
2.667282e+003,1.372762e+002
2.669211e+003,1.362730e+002
2.671139e+003,1.345631e+002
2.673068e+003,1.324794e+002
2.674996e+003,1.305347e+002
2.676925e+003,1.294453e+002
2.678853e+003,1.296237e+002
2.680781e+003,1.331946e+002
2.682710e+003,1.382631e+002
2.684638e+003,1.406907e+002
2.686567e+003,1.407981e+002
2.688495e+003,1.386095e+002
2.690424e+003,1.352169e+002
2.692352e+003,1.326553e+002
2.694281e+003,1.312443e+002
2.696209e+003,1.317360e+002
2.698138e+003,1.340866e+002
2.700066e+003,1.403656e+002
2.701995e+003,1.471869e+002
2.703923e+003,1.452232e+002
2.705852e+003,1.389270e+002
2.707780e+003,1.397585e+002
2.709708e+003,1.446118e+002
2.711637e+003,1.453036e+002
2.713565e+003,1.440451e+002
2.715494e+003,1.475022e+002
2.717422e+003,1.522522e+002
2.719351e+003,1.500184e+002
2.721279e+003,1.447533e+002
2.723208e+003,1.455215e+002
2.725136e+003,1.493533e+002
2.727065e+003,1.491485e+002
2.728993e+003,1.475618e+002
2.730922e+003,1.514195e+002
2.732850e+003,1.565157e+002
2.734779e+003,1.555984e+002
2.736707e+003,1.505713e+002
2.738635e+003,1.414162e+002
2.740564e+003,1.333898e+002
2.742492e+003,1.388798e+002
2.744421e+003,1.494222e+002
2.746349e+003,1.532322e+002
2.748278e+003,1.527083e+002
2.750206e+003,1.500817e+002
2.752135e+003,1.462853e+002
2.754063e+003,1.421249e+002
2.755992e+003,1.380943e+002
2.757920e+003,1.332422e+002
2.759849e+003,1.306487e+002
2.761777e+003,1.369935e+002
2.763706e+003,1.441199e+002
2.765634e+003,1.405094e+002
2.767563e+003,1.352295e+002
2.769491e+003,1.401057e+002
2.771419e+003,1.459371e+002
2.773348e+003,1.416860e+002
2.775276e+003,1.373111e+002
2.777205e+003,1.429773e+002
2.779133e+003,1.505426e+002
2.781062e+003,1.545199e+002
2.782990e+003,1.556299e+002
2.784919e+003,1.534364e+002
2.786847e+003,1.497627e+002
2.788776e+003,1.438870e+002
2.790704e+003,1.395480e+002
2.792633e+003,1.404443e+002
2.794561e+003,1.417684e+002
2.796490e+003,1.387536e+002
2.798418e+003,1.389070e+002
2.800346e+003,1.496331e+002
2.802275e+003,1.566670e+002
2.804203e+003,1.480086e+002
2.806132e+003,1.421164e+002
2.808060e+003,1.502691e+002
2.809989e+003,1.558523e+002
2.811917e+003,1.514023e+002
2.813846e+003,1.495183e+002
2.815774e+003,1.550429e+002
2.817703e+003,1.609055e+002
2.819631e+003,1.680405e+002
2.821560e+003,1.692727e+002
2.823488e+003,1.587650e+002
2.825417e+003,1.541312e+002
2.827345e+003,1.588404e+002
2.829273e+003,1.651136e+002
2.831202e+003,1.712510e+002
2.833130e+003,1.796992e+002
2.835059e+003,1.914112e+002
2.836987e+003,2.042449e+002
2.838916e+003,2.188270e+002
2.840844e+003,2.274243e+002
2.842773e+003,2.283895e+002
2.844701e+003,2.373050e+002
2.846630e+003,2.580090e+002
2.848558e+003,2.683830e+002
2.850487e+003,2.681618e+002
2.852415e+003,2.646978e+002
2.854344e+003,2.588424e+002
2.856272e+003,2.583030e+002
2.858200e+003,2.619932e+002
2.860129e+003,2.585935e+002
2.862057e+003,2.494474e+002
2.863986e+003,2.433422e+002
2.865914e+003,2.380456e+002
2.867843e+003,2.238797e+002
2.869771e+003,2.060351e+002
2.871700e+003,1.957524e+002
2.873628e+003,1.907795e+002
2.875557e+003,1.873708e+002
2.877485e+003,1.856622e+002
2.879414e+003,1.870162e+002
2.881342e+003,1.890503e+002
2.883271e+003,1.884674e+002
2.885199e+003,1.880107e+002
2.887127e+003,1.892147e+002
2.889056e+003,1.933486e+002
2.890984e+003,2.027805e+002
2.892913e+003,2.135520e+002
2.894841e+003,2.212840e+002
2.896770e+003,2.323903e+002
2.898698e+003,2.505876e+002
2.900627e+003,2.724228e+002
2.902555e+003,2.943759e+002
2.904484e+003,3.236295e+002
2.906412e+003,3.580669e+002
2.908341e+003,4.108058e+002
2.910269e+003,4.843253e+002
2.912198e+003,5.835231e+002
2.914126e+003,7.234077e+002
2.916054e+003,8.390688e+002
2.917983e+003,9.262655e+002
2.919911e+003,9.631738e+002
2.921840e+003,9.421641e+002
2.923768e+003,8.777589e+002
2.925697e+003,7.647882e+002
2.927625e+003,6.598030e+002
2.929554e+003,5.665662e+002
2.931482e+003,5.214025e+002
2.933411e+003,5.186123e+002
2.935339e+003,5.122925e+002
2.937268e+003,5.034165e+002
2.939196e+003,4.901852e+002
2.941125e+003,4.818508e+002
2.943053e+003,5.144659e+002
2.944981e+003,5.547203e+002
2.946910e+003,5.493409e+002
2.948838e+003,5.170819e+002
2.950767e+003,4.669052e+002
2.952695e+003,4.210201e+002
2.954624e+003,3.904149e+002
2.956552e+003,3.820774e+002
2.958481e+003,4.184758e+002
2.960409e+003,4.529969e+002
2.962338e+003,4.703329e+002
2.964266e+003,4.609781e+002
2.966195e+003,4.083458e+002
2.968123e+003,3.586545e+002
2.970052e+003,3.179187e+002
2.971980e+003,3.028381e+002
2.973908e+003,3.253023e+002
2.975837e+003,3.351541e+002
2.977765e+003,3.255463e+002
2.979694e+003,3.096747e+002
2.981622e+003,2.874539e+002
2.983551e+003,2.663848e+002
2.985479e+003,2.464319e+002
2.987408e+003,2.301485e+002
2.989336e+003,2.185359e+002
2.991265e+003,2.172414e+002
2.993193e+003,2.240692e+002
2.995122e+003,2.322558e+002
2.997050e+003,2.433895e+002
2.998979e+003,2.698612e+002
3.000907e+003,2.922161e+002
3.002835e+003,2.802869e+002
3.004764e+003,2.587178e+002
3.006692e+003,2.471630e+002
3.008621e+003,2.426941e+002
3.010549e+003,2.462587e+002
3.012478e+003,2.504598e+002
3.014406e+003,2.467257e+002
3.016335e+003,2.511257e+002
3.018263e+003,2.738743e+002
3.020192e+003,2.962350e+002
3.022120e+003,3.137372e+002
3.024049e+003,3.390211e+002
3.025977e+003,3.746659e+002
3.027906e+003,4.181314e+002
3.029834e+003,4.701248e+002
3.031762e+003,5.259113e+002
3.033691e+003,5.820883e+002
3.035619e+003,6.088134e+002
3.037548e+003,6.073143e+002
3.039476e+003,5.740387e+002
3.041405e+003,5.247805e+002
3.043333e+003,4.839483e+002
3.045262e+003,4.697038e+002
3.047190e+003,4.904116e+002
3.049119e+003,5.671782e+002
3.051047e+003,7.700174e+002
3.052976e+003,9.683185e+002
3.054904e+003,1.092849e+003
3.056833e+003,1.164529e+003
3.058761e+003,1.178505e+003
3.060689e+003,1.169720e+003
3.062618e+003,1.157482e+003
3.064546e+003,1.100909e+003
3.066475e+003,9.929053e+002
3.068403e+003,8.522809e+002
3.070332e+003,6.675255e+002
3.072260e+003,5.193992e+002
3.074189e+003,4.078761e+002
3.076117e+003,3.432043e+002
3.078046e+003,3.157983e+002
3.079974e+003,2.870781e+002
3.081903e+003,2.603736e+002
3.083831e+003,2.465297e+002
3.085760e+003,2.384068e+002
3.087688e+003,2.261323e+002
3.089616e+003,2.151413e+002
3.091545e+003,2.122283e+002
3.093473e+003,2.086886e+002
3.095402e+003,1.957032e+002
3.097330e+003,1.877404e+002
3.099259e+003,1.902093e+002
3.101187e+003,1.944354e+002
3.103116e+003,2.031402e+002
3.105044e+003,2.010449e+002
3.106973e+003,1.867535e+002
3.108901e+003,1.727143e+002
3.110830e+003,1.603808e+002
3.112758e+003,1.597632e+002
3.114687e+003,1.672272e+002
3.116615e+003,1.639973e+002
3.118543e+003,1.554362e+002
3.120472e+003,1.515043e+002
3.122400e+003,1.502983e+002
3.124329e+003,1.503458e+002
3.126257e+003,1.512610e+002
3.128186e+003,1.542108e+002
3.130114e+003,1.554924e+002
3.132043e+003,1.526833e+002
3.133971e+003,1.492793e+002
3.135900e+003,1.443085e+002
3.137828e+003,1.443034e+002
3.139757e+003,1.505619e+002
3.141685e+003,1.546107e+002
3.143614e+003,1.555142e+002
3.145542e+003,1.517430e+002
3.147470e+003,1.450070e+002
3.149399e+003,1.489205e+002
3.151327e+003,1.574882e+002
3.153256e+003,1.586702e+002
3.155184e+003,1.567592e+002
3.157113e+003,1.544820e+002
3.159041e+003,1.553714e+002
3.160970e+003,1.648126e+002
3.162898e+003,1.725931e+002
3.164827e+003,1.765191e+002
3.166755e+003,1.722382e+002
3.168684e+003,1.572573e+002
3.170612e+003,1.435243e+002
3.172541e+003,1.321154e+002
3.174469e+003,1.292345e+002
3.176397e+003,1.347188e+002
3.178326e+003,1.393160e+002
3.180254e+003,1.419666e+002
3.182183e+003,1.377982e+002
3.184111e+003,1.317702e+002
3.186040e+003,1.311098e+002
3.187968e+003,1.337222e+002
3.189897e+003,1.398919e+002
3.191825e+003,1.448563e+002
3.193754e+003,1.448619e+002
3.195682e+003,1.458805e+002
3.197611e+003,1.505398e+002
3.199539e+003,1.498629e+002
3.201468e+003,1.406962e+002
3.203396e+003,1.431223e+002
3.205324e+003,1.576309e+002
3.207253e+003,1.516584e+002
3.209181e+003,1.328182e+002
3.211110e+003,1.217112e+002
3.213038e+003,1.165440e+002
3.214967e+003,1.156653e+002
3.216895e+003,1.177352e+002
3.218824e+003,1.248732e+002
3.220752e+003,1.284986e+002
3.222681e+003,1.198609e+002
3.224609e+003,1.158455e+002
3.226538e+003,1.206123e+002
3.228466e+003,1.233568e+002
3.230395e+003,1.222818e+002
3.232323e+003,1.264951e+002
3.234251e+003,1.347795e+002
3.236180e+003,1.314106e+002
3.238108e+003,1.226676e+002
3.240037e+003,1.205236e+002
3.241965e+003,1.225083e+002
3.243894e+003,1.304431e+002
3.245822e+003,1.339730e+002
3.247751e+003,1.237029e+002
3.249679e+003,1.158238e+002
3.251608e+003,1.200469e+002
3.253536e+003,1.175942e+002
3.255465e+003,1.057775e+002
3.257393e+003,1.059937e+002
3.259322e+003,1.184855e+002
3.261250e+003,1.182297e+002
3.263178e+003,1.105342e+002
3.265107e+003,1.117441e+002
3.267035e+003,1.161770e+002
3.268964e+003,1.191476e+002
3.270892e+003,1.191125e+002
3.272821e+003,1.122368e+002
3.274749e+003,1.079289e+002
3.276678e+003,1.108489e+002
3.278606e+003,1.113418e+002
3.280535e+003,1.062477e+002
3.282463e+003,1.111373e+002
3.284392e+003,1.240118e+002
3.286320e+003,1.237928e+002
3.288249e+003,1.157583e+002
3.290177e+003,1.138154e+002
3.292105e+003,1.138398e+002
3.294034e+003,1.092392e+002
3.295962e+003,1.077141e+002
3.297891e+003,1.195370e+002
3.299819e+003,1.244777e+002
3.301748e+003,1.161016e+002
3.303676e+003,1.101841e+002
3.305605e+003,1.093168e+002
3.307533e+003,1.120671e+002
3.309462e+003,1.173578e+002
3.311390e+003,1.181006e+002
3.313319e+003,1.165573e+002
3.315247e+003,1.157692e+002
3.317176e+003,1.161153e+002
3.319104e+003,1.191329e+002
3.321032e+003,1.210251e+002
3.322961e+003,1.188091e+002
3.324889e+003,1.179426e+002
3.326818e+003,1.194321e+002
3.328746e+003,1.201501e+002
3.330675e+003,1.197489e+002
3.332603e+003,1.173249e+002
3.334532e+003,1.137203e+002
3.336460e+003,1.112387e+002
3.338389e+003,1.094737e+002
3.340317e+003,1.084852e+002
3.342246e+003,1.072712e+002
3.344174e+003,1.045591e+002
3.346103e+003,1.035969e+002
3.348031e+003,1.060299e+002
3.349959e+003,1.056270e+002
3.351888e+003,1.015783e+002
3.353816e+003,1.023439e+002
3.355745e+003,1.062809e+002
3.357673e+003,1.086980e+002
3.359602e+003,1.102032e+002
3.361530e+003,1.113128e+002
3.363459e+003,1.123081e+002
3.365387e+003,1.140716e+002
3.367316e+003,1.142622e+002
3.369244e+003,1.120495e+002
3.371173e+003,1.087855e+002
3.373101e+003,1.046888e+002
3.375030e+003,1.035412e+002
3.376958e+003,1.040041e+002
3.378886e+003,9.924202e+001
3.380815e+003,9.520492e+001
3.382743e+003,1.001092e+002
3.384672e+003,1.062438e+002
3.386600e+003,1.096790e+002
3.388529e+003,1.121519e+002
3.390457e+003,1.147803e+002
3.392386e+003,1.097913e+002
3.394314e+003,9.654338e+001
3.396243e+003,9.971513e+001
3.398171e+003,1.110024e+002
3.400100e+003,1.096180e+002
3.402028e+003,1.041597e+002
3.403957e+003,1.007905e+002
3.405885e+003,1.029242e+002
3.407813e+003,1.172671e+002
3.409742e+003,1.236968e+002
3.411670e+003,1.178810e+002
3.413599e+003,1.099505e+002
3.415527e+003,1.016957e+002
3.417456e+003,1.013284e+002
3.419384e+003,1.059082e+002
3.421313e+003,1.136815e+002
3.423241e+003,1.178275e+002
3.425170e+003,1.097710e+002
3.427098e+003,1.036056e+002
3.429027e+003,1.041596e+002
3.430955e+003,1.031089e+002
3.432884e+003,9.949732e+001
3.434812e+003,1.043016e+002
3.436740e+003,1.136619e+002
3.438669e+003,1.119989e+002
3.440597e+003,1.071683e+002
3.442526e+003,1.075755e+002
3.444454e+003,1.081928e+002
3.446383e+003,1.066801e+002
3.448311e+003,1.053006e+002
3.450240e+003,1.047399e+002
3.452168e+003,1.021403e+002
3.454097e+003,9.833508e+001
3.456025e+003,1.008385e+002
3.457954e+003,1.051047e+002
3.459882e+003,1.027616e+002
3.461811e+003,1.018549e+002
3.463739e+003,1.095713e+002
3.465667e+003,1.128187e+002
3.467596e+003,1.023100e+002
3.469524e+003,1.046107e+002
3.471453e+003,1.172098e+002
3.473381e+003,1.118699e+002
3.475310e+003,9.892162e+001
3.477238e+003,1.019676e+002
3.479167e+003,1.058328e+002
3.481095e+003,9.461687e+001
3.483024e+003,9.077944e+001
3.484952e+003,1.053529e+002
3.486881e+003,1.074695e+002
3.488809e+003,9.656260e+001
3.490738e+003,1.043489e+002
3.492666e+003,1.203034e+002
3.494594e+003,1.158563e+002
3.496523e+003,1.069358e+002
3.498451e+003,1.044029e+002
3.500380e+003,1.054426e+002
3.502308e+003,1.101482e+002
3.504237e+003,1.122357e+002
3.506165e+003,1.108194e+002
3.508094e+003,1.064627e+002
3.510022e+003,1.019823e+002
3.511951e+003,1.046838e+002
3.513879e+003,1.103370e+002
3.515808e+003,1.195429e+002
3.517736e+003,1.217843e+002
3.519665e+003,1.119359e+002
3.521593e+003,1.088905e+002
3.523521e+003,1.142894e+002
3.525450e+003,1.189049e+002
3.527378e+003,1.207287e+002
3.529307e+003,1.134823e+002
3.531235e+003,1.062086e+002
3.533164e+003,1.061550e+002
3.535092e+003,1.070729e+002
3.537021e+003,1.067242e+002
3.538949e+003,1.105131e+002
3.540878e+003,1.174504e+002
3.542806e+003,1.164273e+002
3.544735e+003,1.109855e+002
3.546663e+003,1.033740e+002
3.548592e+003,9.963277e+001
3.550520e+003,1.048525e+002
3.552448e+003,1.091452e+002
3.554377e+003,1.096141e+002
3.556305e+003,1.146850e+002
3.558234e+003,1.215803e+002
3.560162e+003,1.167120e+002
3.562091e+003,1.074990e+002
3.564019e+003,1.016579e+002
3.565948e+003,9.874799e+001
3.567876e+003,9.942105e+001
3.569805e+003,1.016201e+002
3.571733e+003,1.051084e+002
3.573662e+003,1.097560e+002
3.575590e+003,1.133727e+002
3.577519e+003,1.068348e+002
3.579447e+003,1.009023e+002
3.581376e+003,1.067897e+002
3.583304e+003,1.103380e+002
3.585233e+003,1.065152e+002
3.587161e+003,1.072992e+002
3.589090e+003,1.124015e+002
3.591018e+003,1.117598e+002
3.592947e+003,1.087671e+002
3.594875e+003,1.096714e+002
3.596803e+003,1.090466e+002
3.598732e+003,1.005538e+002
3.600660e+003,9.823181e+001
3.602589e+003,1.035226e+002
3.604517e+003,1.127132e+002
3.606446e+003,1.178182e+002
3.608374e+003,7.682674e+001
3.610303e+003,4.524227e+001
3.612231e+003,8.754202e+001
3.614160e+003,1.143061e+002
3.616088e+003,1.027588e+002
3.618017e+003,9.785201e+001
3.619945e+003,1.018660e+002
3.621874e+003,1.038467e+002
3.623802e+003,1.040689e+002
3.625730e+003,9.980137e+001
3.627659e+003,1.005552e+002
3.629587e+003,1.133157e+002
3.631516e+003,1.205390e+002
3.633444e+003,1.197928e+002
3.635373e+003,1.144536e+002
3.637301e+003,1.076752e+002
3.639230e+003,1.057470e+002
3.641158e+003,1.055954e+002
3.643087e+003,1.061425e+002
3.645015e+003,1.062182e+002
3.646944e+003,1.056651e+002
3.648872e+003,1.039262e+002
3.650801e+003,1.021223e+002
3.652729e+003,1.056375e+002
3.654657e+003,1.090358e+002
3.656586e+003,1.065966e+002
3.658514e+003,1.051241e+002
3.660443e+003,1.061758e+002
3.662371e+003,1.065772e+002
3.664300e+003,1.069974e+002
3.666228e+003,1.150484e+002
3.668157e+003,1.217949e+002
3.670085e+003,1.167758e+002
3.672014e+003,1.092693e+002
3.673942e+003,1.010055e+002
3.675871e+003,9.972791e+001
3.677799e+003,1.042346e+002
3.679728e+003,9.848526e+001
3.681656e+003,9.219017e+001
3.683584e+003,9.990728e+001
3.685513e+003,1.051022e+002
3.687441e+003,1.011415e+002
3.689370e+003,1.002030e+002
3.691298e+003,1.031737e+002
3.693227e+003,1.051005e+002
3.695155e+003,1.055468e+002
3.697084e+003,1.026547e+002
3.699012e+003,1.011042e+002
3.700941e+003,1.030154e+002
3.702869e+003,1.052744e+002
3.704798e+003,1.076065e+002
3.706726e+003,1.115760e+002
3.708655e+003,1.153708e+002
3.710583e+003,1.177895e+002
3.712511e+003,1.162473e+002
3.714440e+003,1.075658e+002
3.716368e+003,1.050128e+002
3.718297e+003,1.092427e+002
3.720225e+003,1.067898e+002
3.722154e+003,1.023578e+002
3.724082e+003,1.026177e+002
3.726011e+003,1.035812e+002
3.727939e+003,1.030683e+002
3.729868e+003,1.063283e+002
3.731796e+003,1.128994e+002
3.733725e+003,1.128035e+002
3.735653e+003,1.085150e+002
3.737582e+003,9.878867e+001
3.739510e+003,9.665092e+001
3.741438e+003,1.105231e+002
3.743367e+003,1.141015e+002
3.745295e+003,1.079548e+002
3.747224e+003,1.141085e+002
3.749152e+003,1.207959e+002
3.751081e+003,1.114390e+002
3.753009e+003,1.057195e+002
3.754938e+003,1.111033e+002
3.756866e+003,1.117556e+002
3.758795e+003,1.082400e+002
3.760723e+003,1.077140e+002
3.762652e+003,1.080821e+002
3.764580e+003,1.070707e+002
3.766509e+003,1.073524e+002
3.768437e+003,1.099016e+002
3.770365e+003,1.094788e+002
3.772294e+003,1.068876e+002
3.774222e+003,1.027380e+002
3.776151e+003,1.026413e+002
3.778079e+003,1.157879e+002
3.780008e+003,1.179224e+002
3.781936e+003,1.054856e+002
3.783865e+003,1.002398e+002
3.785793e+003,1.003363e+002
3.787722e+003,1.024916e+002
3.789650e+003,1.050067e+002
3.791579e+003,1.086763e+002
3.793507e+003,1.049032e+002
3.795436e+003,9.463766e+001
3.797364e+003,1.010378e+002
3.799292e+003,1.116803e+002
3.801221e+003,1.094962e+002
3.803149e+003,1.054974e+002
3.805078e+003,1.025535e+002
3.807006e+003,1.033243e+002
3.808935e+003,1.058296e+002
3.810863e+003,9.886057e+001
3.812792e+003,9.284420e+001
3.814720e+003,9.893347e+001
3.816649e+003,1.036351e+002
3.818577e+003,1.036335e+002
3.820506e+003,1.052847e+002
3.822434e+003,1.079425e+002
3.824363e+003,1.117780e+002
3.826291e+003,1.127075e+002
3.828219e+003,1.076972e+002
3.830148e+003,1.046014e+002
3.832076e+003,1.041107e+002
3.834005e+003,1.008213e+002
3.835933e+003,9.985680e+001
3.837862e+003,1.115517e+002
3.839790e+003,1.165761e+002
3.841719e+003,1.098684e+002
3.843647e+003,1.054943e+002
3.845576e+003,1.037162e+002
3.847504e+003,1.026152e+002
3.849433e+003,1.033645e+002
3.851361e+003,1.100563e+002
3.853290e+003,1.094452e+002
3.855218e+003,1.014561e+002
3.857146e+003,1.013096e+002
3.859075e+003,1.015944e+002
3.861003e+003,8.681964e+001
3.862932e+003,8.117313e+001
3.864860e+003,9.691467e+001
3.866789e+003,1.050805e+002
3.868717e+003,1.067412e+002
3.870646e+003,1.072380e+002
3.872574e+003,1.069985e+002
3.874503e+003,1.062980e+002
3.876431e+003,1.050247e+002
3.878360e+003,1.032064e+002
3.880288e+003,9.965880e+001
3.882217e+003,9.748186e+001
3.884145e+003,1.033946e+002
3.886073e+003,1.061464e+002
3.888002e+003,1.014395e+002
3.889930e+003,1.031026e+002
3.891859e+003,1.091474e+002
3.893787e+003,1.158705e+002
3.895716e+003,1.189520e+002
3.897644e+003,1.156406e+002
3.899573e+003,1.092528e+002
3.901501e+003,1.015250e+002
3.903430e+003,1.055292e+002
3.905358e+003,1.113398e+002
3.907287e+003,1.093091e+002
3.909215e+003,1.050527e+002
3.911144e+003,9.984215e+001
3.913072e+003,1.020404e+002
3.915000e+003,1.078899e+002
3.916929e+003,1.130863e+002
3.918857e+003,1.133522e+002
3.920786e+003,1.038644e+002
3.922714e+003,1.036541e+002
3.924643e+003,1.089523e+002
3.926571e+003,1.055797e+002
3.928500e+003,9.975718e+001
3.930428e+003,9.336133e+001
3.932357e+003,9.383340e+001
3.934285e+003,1.006795e+002
3.936214e+003,1.074488e+002
3.938142e+003,1.114452e+002
3.940071e+003,1.091661e+002
3.941999e+003,1.038173e+002
3.943927e+003,9.538842e+001
3.945856e+003,9.370875e+001
3.947784e+003,9.599418e+001
3.949713e+003,9.822560e+001
3.951641e+003,1.022593e+002
3.953570e+003,1.091229e+002
3.955498e+003,1.071234e+002
3.957427e+003,1.002825e+002
3.959355e+003,1.003726e+002
3.961284e+003,1.000812e+002
3.963212e+003,9.443195e+001
3.965141e+003,9.186919e+001
3.967069e+003,9.289768e+001
3.968998e+003,9.814378e+001
3.970926e+003,1.040699e+002
3.972854e+003,1.095998e+002
3.974783e+003,1.092709e+002
3.976711e+003,1.043860e+002
3.978640e+003,1.105988e+002
3.980568e+003,1.151915e+002
3.982497e+003,1.026846e+002
3.984425e+003,9.607177e+001
3.986354e+003,9.996399e+001
3.988282e+003,9.629294e+001
3.990211e+003,9.230199e+001
3.992139e+003,9.948364e+001
3.994068e+003,1.035038e+002
3.995996e+003,1.011696e+002
3.997925e+003,1.034779e+002
3.999853e+003,1.072612e+002
4.001781e+003,1.058477e+002
4.003710e+003,1.060412e+002
4.005638e+003,1.104881e+002
4.007567e+003,1.074788e+002
4.009495e+003,1.013643e+002
4.011424e+003,1.018941e+002
4.013352e+003,1.048291e+002
4.015281e+003,1.102704e+002
4.017209e+003,1.116543e+002
4.019138e+003,1.094791e+002
4.021066e+003,1.039000e+002
4.022995e+003,9.992339e+001
4.024923e+003,9.980238e+001
4.026852e+003,1.015058e+002
4.028780e+003,1.037102e+002
4.030708e+003,1.006858e+002
4.032637e+003,1.008364e+002
4.034565e+003,1.108048e+002
4.036494e+003,1.136417e+002
4.038422e+003,1.097736e+002
4.040351e+003,1.055734e+002
4.042279e+003,1.016646e+002
4.044208e+003,9.755235e+001
4.046136e+003,9.686391e+001
4.048065e+003,9.906476e+001
4.049993e+003,1.022309e+002
4.051922e+003,1.033878e+002
4.053850e+003,1.000690e+002
4.055779e+003,9.868944e+001
4.057707e+003,9.925807e+001
4.059635e+003,9.873958e+001
4.061564e+003,9.748278e+001
4.063492e+003,9.479132e+001
4.065421e+003,9.698804e+001
4.067349e+003,1.026256e+002
4.069278e+003,9.811180e+001
4.071206e+003,9.377151e+001
4.073135e+003,9.888277e+001
4.075063e+003,1.005739e+002
4.076992e+003,9.918463e+001
4.078920e+003,1.017010e+002
4.080849e+003,1.028475e+002
4.082777e+003,9.755576e+001
4.084706e+003,9.777261e+001
4.086634e+003,1.017145e+002
4.088563e+003,9.762238e+001
4.090491e+003,9.375371e+001
4.092419e+003,9.543049e+001
4.094348e+003,9.416152e+001
4.096276e+003,9.044537e+001
4.098205e+003,8.855469e+001
4.100133e+003,8.854995e+001
4.102062e+003,9.117043e+001
4.103990e+003,9.277657e+001
4.105919e+003,9.341393e+001
4.107847e+003,9.464693e+001
4.109776e+003,9.435974e+001
4.111704e+003,8.846220e+001
4.113633e+003,9.203625e+001
4.115561e+003,1.002867e+002
4.117490e+003,1.004894e+002
4.119418e+003,1.008917e+002
4.121347e+003,1.053964e+002
4.123275e+003,1.002804e+002
4.125204e+003,9.167177e+001
4.127132e+003,9.249505e+001
4.129061e+003,9.584007e+001
4.130989e+003,9.962186e+001
4.132917e+003,9.897808e+001
4.134846e+003,9.643320e+001
4.136774e+003,9.578088e+001
4.138703e+003,9.558218e+001
4.140631e+003,9.549059e+001
4.142560e+003,9.485574e+001
4.144488e+003,9.346621e+001
4.146417e+003,8.926189e+001
4.148345e+003,9.019194e+001
4.150273e+003,9.721561e+001
4.152202e+003,1.000374e+002
4.154130e+003,9.841465e+001
4.156059e+003,8.728003e+001
4.157987e+003,8.595802e+001
4.159916e+003,9.348649e+001
4.161844e+003,9.038728e+001
4.163773e+003,8.871169e+001
4.165701e+003,1.005114e+002
4.167630e+003,1.010281e+002
4.169558e+003,9.308214e+001
4.171487e+003,8.623396e+001
4.173415e+003,8.550117e+001
4.175344e+003,9.379877e+001
4.177272e+003,9.244608e+001
4.179201e+003,8.666091e+001
4.181129e+003,8.791216e+001
4.183058e+003,9.135873e+001
4.184986e+003,9.551320e+001
4.186915e+003,9.696384e+001
4.188843e+003,9.695685e+001
4.190771e+003,9.656380e+001
4.192700e+003,9.731789e+001
4.194628e+003,9.919853e+001
4.196557e+003,9.890474e+001
4.198485e+003,9.746032e+001
4.200414e+003,9.475706e+001
4.202342e+003,9.711235e+001
4.204271e+003,1.020372e+002
4.206199e+003,9.338780e+001
4.208127e+003,8.682617e+001
4.210056e+003,9.083263e+001
4.211984e+003,9.317245e+001
4.213913e+003,9.369358e+001
4.215841e+003,9.265970e+001
4.217770e+003,9.132540e+001
4.219698e+003,8.977298e+001
4.221627e+003,9.423866e+001
4.223555e+003,9.852776e+001
4.225484e+003,9.394495e+001
4.227412e+003,9.058808e+001
4.229341e+003,8.993401e+001
4.231269e+003,9.488006e+001
4.233198e+003,9.757629e+001
4.235126e+003,8.823560e+001
4.237055e+003,9.234990e+001
4.238983e+003,1.022975e+002
4.240912e+003,9.612638e+001
4.242840e+003,8.872884e+001
4.244769e+003,8.508311e+001
4.246697e+003,8.366198e+001
4.248625e+003,8.558914e+001
4.250554e+003,9.225624e+001
