1.159199e+002,6.422483e+002
1.178484e+002,7.106804e+002
1.197769e+002,7.740448e+002
1.217053e+002,8.317979e+002
1.236338e+002,8.834351e+002
1.255623e+002,9.344757e+002
1.274907e+002,9.772135e+002
1.294192e+002,1.007610e+003
1.313477e+002,1.021588e+003
1.332761e+002,1.024751e+003
1.352046e+002,1.018478e+003
1.371331e+002,1.001806e+003
1.390615e+002,9.728305e+002
1.409900e+002,9.214296e+002
1.429185e+002,8.563253e+002
1.448469e+002,7.925939e+002
1.467754e+002,7.324447e+002
1.487039e+002,6.721726e+002
1.506323e+002,6.100255e+002
1.525608e+002,5.465189e+002
1.544893e+002,4.865100e+002
1.564177e+002,4.297826e+002
1.583462e+002,3.774642e+002
1.602747e+002,3.353443e+002
1.622031e+002,3.048888e+002
1.641316e+002,2.813812e+002
1.660601e+002,2.614177e+002
1.679885e+002,2.448817e+002
1.699170e+002,2.313737e+002
1.718455e+002,2.215047e+002
1.737739e+002,2.151300e+002
1.757024e+002,2.069341e+002
1.776309e+002,1.938655e+002
1.795593e+002,1.805351e+002
1.814878e+002,1.708222e+002
1.834163e+002,1.661398e+002
1.853447e+002,1.635411e+002
1.872732e+002,1.635881e+002
1.892017e+002,1.660552e+002
1.911301e+002,1.681656e+002
1.930586e+002,1.688741e+002
1.949871e+002,1.693271e+002
1.969155e+002,1.710968e+002
1.988440e+002,1.751056e+002
2.007725e+002,1.794286e+002
2.027009e+002,1.847992e+002
2.046294e+002,1.919305e+002
2.065579e+002,1.942786e+002
2.084864e+002,1.895741e+002
2.104148e+002,1.797282e+002
2.123433e+002,1.688599e+002
2.142718e+002,1.563567e+002
2.162002e+002,1.434146e+002
2.181287e+002,1.303078e+002
2.200572e+002,1.165429e+002
2.219856e+002,1.041655e+002
2.239141e+002,9.331483e+001
2.258426e+002,8.414909e+001
2.277710e+002,7.619983e+001
2.296995e+002,6.928128e+001
2.316280e+002,6.404608e+001
2.335564e+002,6.064982e+001
2.354849e+002,6.037277e+001
2.374134e+002,6.043100e+001
2.393418e+002,6.129783e+001
2.412703e+002,6.250319e+001
2.431988e+002,6.303545e+001
2.451272e+002,6.210183e+001
2.470557e+002,6.092646e+001
2.489842e+002,6.015977e+001
2.509126e+002,6.026125e+001
2.528411e+002,5.974813e+001
2.547696e+002,5.728461e+001
2.566980e+002,5.389836e+001
2.586265e+002,5.246498e+001
2.605550e+002,5.557804e+001
2.624834e+002,5.896574e+001
2.644119e+002,6.022652e+001
2.663404e+002,5.896637e+001
2.682688e+002,5.766388e+001
2.701973e+002,5.658334e+001
2.721258e+002,5.575948e+001
2.740542e+002,5.572719e+001
2.759827e+002,5.752620e+001
2.779112e+002,5.922669e+001
2.798396e+002,5.937150e+001
2.817681e+002,5.757358e+001
2.836966e+002,5.658322e+001
2.856250e+002,5.725747e+001
2.875535e+002,5.927150e+001
2.894820e+002,6.146160e+001
2.914104e+002,6.548714e+001
2.933389e+002,6.838169e+001
2.952674e+002,6.772952e+001
2.971958e+002,6.205630e+001
2.991243e+002,5.984972e+001
3.010528e+002,6.459171e+001
3.029813e+002,7.389008e+001
3.049097e+002,8.022550e+001
3.068382e+002,8.275020e+001
3.087667e+002,8.326871e+001
3.106951e+002,8.219277e+001
3.126236e+002,7.857030e+001
3.145521e+002,7.638806e+001
3.164805e+002,7.649261e+001
3.184090e+002,7.821471e+001
3.203375e+002,8.027650e+001
3.222659e+002,8.427460e+001
3.241944e+002,8.632724e+001
3.261229e+002,8.449095e+001
3.280513e+002,7.581898e+001
3.299798e+002,7.096567e+001
3.319083e+002,7.230244e+001
3.338367e+002,7.665067e+001
3.357652e+002,7.953512e+001
3.376937e+002,8.015942e+001
3.396221e+002,8.051408e+001
3.415506e+002,8.070757e+001
3.434791e+002,8.034275e+001
3.454075e+002,8.252548e+001
3.473360e+002,8.896004e+001
3.492645e+002,9.700375e+001
3.511929e+002,1.047738e+002
3.531214e+002,1.138097e+002
3.550499e+002,1.193360e+002
3.569783e+002,1.192963e+002
3.589068e+002,1.136886e+002
3.608353e+002,1.089856e+002
3.627637e+002,1.062570e+002
3.646922e+002,1.036232e+002
3.666207e+002,1.000430e+002
3.685491e+002,9.516713e+001
3.704776e+002,9.001189e+001
3.724061e+002,8.373480e+001
3.743345e+002,7.720002e+001
3.762630e+002,7.325063e+001
3.781915e+002,7.402797e+001
3.801199e+002,7.491836e+001
3.820484e+002,7.344704e+001
3.839769e+002,6.766597e+001
3.859053e+002,6.429394e+001
3.878338e+002,6.469753e+001
3.897623e+002,6.737576e+001
3.916907e+002,6.987480e+001
3.936192e+002,7.245715e+001
3.955477e+002,7.429855e+001
3.974761e+002,7.509020e+001
3.994046e+002,7.462927e+001
4.013331e+002,7.416988e+001
4.032615e+002,7.294316e+001
4.051900e+002,7.225865e+001
4.071185e+002,7.372233e+001
4.090469e+002,7.883597e+001
4.109754e+002,8.174416e+001
4.129039e+002,7.945759e+001
4.148323e+002,7.315770e+001
4.167608e+002,7.043867e+001
4.186893e+002,7.539248e+001
4.206177e+002,7.998093e+001
4.225462e+002,7.958728e+001
4.244747e+002,7.320177e+001
4.264032e+002,6.906014e+001
4.283316e+002,7.023579e+001
4.302601e+002,7.386570e+001
4.321886e+002,7.497489e+001
4.341170e+002,7.114162e+001
4.360455e+002,6.889284e+001
4.379740e+002,7.125146e+001
4.399024e+002,7.771842e+001
4.418309e+002,8.358417e+001
4.437594e+002,8.801768e+001
4.456878e+002,9.206382e+001
4.476163e+002,9.639125e+001
4.495448e+002,1.009704e+002
4.514732e+002,1.057287e+002
4.534017e+002,1.106717e+002
4.553302e+002,1.157819e+002
4.572586e+002,1.210707e+002
4.591871e+002,1.275001e+002
4.611156e+002,1.332803e+002
4.630440e+002,1.393295e+002
4.649725e+002,1.454955e+002
4.669010e+002,1.461583e+002
4.688294e+002,1.355580e+002
4.707579e+002,1.217758e+002
4.726864e+002,1.111065e+002
4.746148e+002,1.055532e+002
4.765433e+002,1.010036e+002
4.784718e+002,9.731734e+001
4.804002e+002,9.456650e+001
4.823287e+002,9.301890e+001
4.842572e+002,9.536231e+001
4.861856e+002,9.537668e+001
4.881141e+002,8.938110e+001
4.900426e+002,7.409319e+001
4.919710e+002,6.470827e+001
4.938995e+002,6.349082e+001
4.958280e+002,6.672060e+001
4.977564e+002,7.137090e+001
4.996849e+002,7.830624e+001
5.016134e+002,8.409769e+001
5.035418e+002,8.743507e+001
5.054703e+002,8.890471e+001
5.073988e+002,9.096204e+001
5.093272e+002,9.592632e+001
5.112557e+002,9.921597e+001
5.131842e+002,9.777644e+001
5.151127e+002,9.195818e+001
5.170411e+002,8.778841e+001
5.189696e+002,8.689224e+001
5.208981e+002,8.756445e+001
5.228265e+002,8.899651e+001
5.247550e+002,9.281744e+001
5.266835e+002,9.422861e+001
5.286119e+002,9.044309e+001
5.305404e+002,8.403323e+001
5.324689e+002,7.942490e+001
5.343973e+002,7.716644e+001
5.363258e+002,7.656254e+001
5.382543e+002,7.860477e+001
5.401827e+002,8.356023e+001
5.421112e+002,8.534850e+001
5.440397e+002,7.975908e+001
5.459681e+002,7.425337e+001
5.478966e+002,7.380457e+001
5.498251e+002,8.072809e+001
5.517535e+002,8.500320e+001
5.536820e+002,8.407986e+001
5.556105e+002,8.053623e+001
5.575389e+002,7.829891e+001
5.594674e+002,7.713930e+001
5.613959e+002,7.742421e+001
5.633243e+002,8.097157e+001
5.652528e+002,8.665697e+001
5.671813e+002,8.917764e+001
5.691097e+002,8.431458e+001
5.710382e+002,7.969843e+001
5.729667e+002,7.868373e+001
5.748951e+002,8.161175e+001
5.768236e+002,8.407224e+001
5.787521e+002,8.451175e+001
5.806805e+002,8.508086e+001
5.826090e+002,8.739008e+001
5.845375e+002,9.196217e+001
5.864659e+002,9.748075e+001
5.883944e+002,1.045733e+002
5.903229e+002,1.123377e+002
5.922513e+002,1.188879e+002
5.941798e+002,1.232840e+002
5.961083e+002,1.284896e+002
5.980367e+002,1.368040e+002
5.999652e+002,1.477892e+002
6.018937e+002,1.553100e+002
6.038221e+002,1.595212e+002
6.057506e+002,1.603472e+002
6.076791e+002,1.551172e+002
6.096075e+002,1.437020e+002
6.115360e+002,1.366639e+002
6.134645e+002,1.370298e+002
6.153929e+002,1.413137e+002
6.173214e+002,1.481809e+002
6.192499e+002,1.649830e+002
6.211783e+002,1.696807e+002
6.231068e+002,1.537583e+002
6.250353e+002,1.277596e+002
6.269637e+002,1.072766e+002
6.288922e+002,9.172803e+001
6.308207e+002,8.201759e+001
6.327491e+002,8.113986e+001
6.346776e+002,8.681117e+001
6.366061e+002,9.004523e+001
6.385345e+002,8.829497e+001
6.404630e+002,8.653360e+001
6.423915e+002,8.628696e+001
6.443199e+002,8.743161e+001
6.462484e+002,8.874390e+001
6.481769e+002,9.058082e+001
6.501053e+002,9.212859e+001
6.520338e+002,9.273704e+001
6.539623e+002,9.158311e+001
6.558907e+002,9.206857e+001
6.578192e+002,9.587277e+001
6.597477e+002,1.002622e+002
6.616761e+002,1.023142e+002
6.636046e+002,1.015672e+002
6.655331e+002,1.013372e+002
6.674615e+002,1.032676e+002
6.693900e+002,1.059351e+002
6.713185e+002,1.075119e+002
6.732469e+002,1.072153e+002
6.751754e+002,1.066943e+002
6.771039e+002,1.055891e+002
6.790323e+002,1.044183e+002
6.809608e+002,1.046796e+002
6.828893e+002,1.080803e+002
6.848177e+002,1.099153e+002
6.867462e+002,1.079210e+002
6.886747e+002,1.022792e+002
6.906031e+002,9.705141e+001
6.925316e+002,9.012838e+001
6.944601e+002,8.551891e+001
6.963885e+002,8.679878e+001
6.983170e+002,9.351009e+001
7.002455e+002,9.702952e+001
7.021740e+002,9.347530e+001
7.041024e+002,8.933282e+001
7.060309e+002,8.872445e+001
7.079594e+002,9.342008e+001
7.098878e+002,9.589729e+001
7.118163e+002,9.339791e+001
7.137448e+002,9.031998e+001
7.156732e+002,9.145645e+001
7.176017e+002,9.760099e+001
7.195302e+002,1.016972e+002
7.214586e+002,9.859186e+001
7.233871e+002,9.467191e+001
7.253156e+002,9.688393e+001
7.272440e+002,1.110480e+002
7.291725e+002,1.215902e+002
7.311010e+002,1.250909e+002
7.330294e+002,1.245403e+002
7.349579e+002,1.248190e+002
7.368864e+002,1.252327e+002
7.388149e+002,1.277301e+002
7.407433e+002,1.363178e+002
7.426718e+002,1.472732e+002
7.446003e+002,1.519357e+002
7.465287e+002,1.464652e+002
7.484572e+002,1.386161e+002
7.503857e+002,1.283637e+002
7.523141e+002,1.165697e+002
7.542426e+002,1.064997e+002
7.561711e+002,9.748745e+001
7.580995e+002,9.114124e+001
7.600280e+002,8.868146e+001
7.619565e+002,8.953664e+001
7.638849e+002,9.135995e+001
7.658134e+002,9.471214e+001
7.677419e+002,9.836705e+001
7.696703e+002,1.021497e+002
7.715988e+002,1.060174e+002
7.735273e+002,1.093165e+002
7.754557e+002,1.118042e+002
7.773842e+002,1.139686e+002
7.793127e+002,1.169579e+002
7.812411e+002,1.206438e+002
7.831696e+002,1.210453e+002
7.850981e+002,1.135362e+002
7.870266e+002,1.064254e+002
7.889550e+002,1.027238e+002
7.908835e+002,1.027118e+002
7.928120e+002,1.066055e+002
7.947404e+002,1.162037e+002
7.966689e+002,1.283721e+002
7.985974e+002,1.413615e+002
8.005258e+002,1.551359e+002
8.024543e+002,1.705217e+002
8.043828e+002,1.872398e+002
8.063112e+002,2.058653e+002
8.082397e+002,2.272445e+002
8.101682e+002,2.525292e+002
8.120966e+002,2.763038e+002
8.140251e+002,3.017235e+002
8.159536e+002,3.230048e+002
8.178820e+002,3.376452e+002
8.198105e+002,3.464122e+002
8.217390e+002,3.456753e+002
8.236674e+002,3.252113e+002
8.255959e+002,3.020214e+002
8.275244e+002,2.869813e+002
8.294528e+002,2.864800e+002
8.313813e+002,2.772026e+002
8.333098e+002,2.531198e+002
8.352382e+002,2.246527e+002
8.371667e+002,1.978153e+002
8.390952e+002,1.720793e+002
8.410236e+002,1.527363e+002
8.429521e+002,1.434008e+002
8.448806e+002,1.393423e+002
8.468090e+002,1.382844e+002
8.487375e+002,1.424212e+002
8.506660e+002,1.437917e+002
8.525944e+002,1.403610e+002
8.545229e+002,1.357533e+002
8.564514e+002,1.337437e+002
8.583798e+002,1.347161e+002
8.603083e+002,1.314231e+002
8.622368e+002,1.165823e+002
8.641652e+002,1.025790e+002
8.660937e+002,9.857147e+001
8.680222e+002,1.074733e+002
8.699506e+002,1.128094e+002
8.718791e+002,1.110169e+002
8.738076e+002,1.076889e+002
8.757360e+002,1.062483e+002
8.776645e+002,1.069286e+002
8.795930e+002,1.078819e+002
8.815214e+002,1.101555e+002
8.834499e+002,1.116321e+002
8.853784e+002,1.098063e+002
8.873068e+002,1.045312e+002
8.892353e+002,1.033417e+002
8.911638e+002,1.119873e+002
8.930922e+002,1.206375e+002
8.950207e+002,1.240637e+002
8.969492e+002,1.212945e+002
8.988776e+002,1.208826e+002
9.008061e+002,1.258653e+002
9.027346e+002,1.302162e+002
9.046630e+002,1.306131e+002
9.065915e+002,1.278622e+002
9.085200e+002,1.248623e+002
9.104484e+002,1.212418e+002
9.123769e+002,1.185342e+002
9.143054e+002,1.186356e+002
9.162338e+002,1.213123e+002
9.181623e+002,1.199354e+002
9.200908e+002,1.081265e+002
9.220192e+002,9.956551e+001
9.239477e+002,1.004581e+002
9.258762e+002,1.084515e+002
9.278046e+002,1.148567e+002
9.297331e+002,1.193126e+002
9.316616e+002,1.221445e+002
9.335900e+002,1.224636e+002
9.355185e+002,1.212072e+002
9.374470e+002,1.211124e+002
9.393754e+002,1.237031e+002
9.413039e+002,1.255333e+002
9.432324e+002,1.259264e+002
9.451608e+002,1.253335e+002
9.470893e+002,1.245587e+002
9.490178e+002,1.235636e+002
9.509462e+002,1.226463e+002
9.528747e+002,1.221851e+002
9.548032e+002,1.216995e+002
9.567316e+002,1.201640e+002
9.586601e+002,1.164920e+002
9.605886e+002,1.155554e+002
9.625170e+002,1.190974e+002
9.644455e+002,1.249209e+002
9.663740e+002,1.308674e+002
9.683024e+002,1.354771e+002
9.702309e+002,1.443773e+002
9.721594e+002,1.566965e+002
9.740878e+002,1.740314e+002
9.760163e+002,1.942567e+002
9.779448e+002,2.176066e+002
9.798733e+002,2.592823e+002
9.818018e+002,3.350815e+002
9.837302e+002,4.144043e+002
9.856587e+002,4.854518e+002
9.875872e+002,5.480396e+002
9.895156e+002,5.984622e+002
9.914441e+002,6.248862e+002
9.933726e+002,6.529545e+002
9.953010e+002,7.036184e+002
9.972295e+002,7.634867e+002
9.991580e+002,7.875714e+002
1.001086e+003,7.794228e+002
1.003015e+003,7.317210e+002
1.004943e+003,6.048106e+002
1.006872e+003,4.466103e+002
1.008800e+003,3.317663e+002
1.010729e+003,2.697883e+002
1.012657e+003,2.313408e+002
1.014586e+003,2.174126e+002
1.016514e+003,2.180723e+002
1.018443e+003,2.242040e+002
1.020371e+003,2.396237e+002
1.022300e+003,2.511355e+002
1.024228e+003,2.558183e+002
1.026156e+003,2.586021e+002
1.028085e+003,2.649815e+002
1.030013e+003,2.742834e+002
1.031942e+003,2.760831e+002
1.033870e+003,2.690200e+002
1.035799e+003,2.534498e+002
1.037727e+003,2.261079e+002
1.039656e+003,1.883035e+002
1.041584e+003,1.569513e+002
1.043513e+003,1.298954e+002
1.045441e+003,1.120599e+002
1.047370e+003,1.089590e+002
1.049298e+003,1.155148e+002
1.051227e+003,1.203890e+002
1.053155e+003,1.239757e+002
1.055083e+003,1.252850e+002
1.057012e+003,1.222805e+002
1.058940e+003,1.178913e+002
1.060869e+003,1.146413e+002
1.062797e+003,1.124598e+002
1.064726e+003,1.118333e+002
1.066654e+003,1.146297e+002
1.068583e+003,1.173864e+002
1.070511e+003,1.181282e+002
1.072440e+003,1.166479e+002
1.074368e+003,1.150645e+002
1.076297e+003,1.129165e+002
1.078225e+003,1.112664e+002
1.080154e+003,1.113161e+002
1.082082e+003,1.121945e+002
1.084010e+003,1.110578e+002
1.085939e+003,1.065142e+002
1.087867e+003,1.036661e+002
1.089796e+003,1.052817e+002
1.091724e+003,1.089372e+002
1.093653e+003,1.122253e+002
1.095581e+003,1.154449e+002
1.097510e+003,1.169894e+002
1.099438e+003,1.150199e+002
1.101367e+003,1.127995e+002
1.103295e+003,1.125843e+002
1.105224e+003,1.146228e+002
1.107152e+003,1.162615e+002
1.109081e+003,1.167200e+002
1.111009e+003,1.177845e+002
1.112938e+003,1.207811e+002
1.114866e+003,1.248013e+002
1.116794e+003,1.274950e+002
1.118723e+003,1.279934e+002
1.120651e+003,1.292774e+002
1.122580e+003,1.330372e+002
1.124508e+003,1.375283e+002
1.126437e+003,1.412068e+002
1.128365e+003,1.443271e+002
1.130294e+003,1.457484e+002
1.132222e+003,1.434744e+002
1.134151e+003,1.416054e+002
1.136079e+003,1.428486e+002
1.138008e+003,1.470226e+002
1.139936e+003,1.500865e+002
1.141865e+003,1.502689e+002
1.143793e+003,1.518915e+002
1.145721e+003,1.557065e+002
1.147650e+003,1.621058e+002
1.149578e+003,1.730386e+002
1.151507e+003,1.907640e+002
1.153435e+003,2.025976e+002
1.155364e+003,2.022047e+002
1.157292e+003,1.974960e+002
1.159221e+003,1.923566e+002
1.161149e+003,1.864153e+002
1.163078e+003,1.834558e+002
1.165006e+003,1.856244e+002
1.166935e+003,1.882369e+002
1.168863e+003,1.893316e+002
1.170792e+003,1.898602e+002
1.172720e+003,1.923979e+002
1.174648e+003,1.967936e+002
1.176577e+003,2.030558e+002
1.178505e+003,2.150020e+002
1.180434e+003,2.259962e+002
1.182362e+003,2.288116e+002
1.184291e+003,2.238302e+002
1.186219e+003,2.226839e+002
1.188148e+003,2.276870e+002
1.190076e+003,2.359324e+002
1.192005e+003,2.468687e+002
1.193933e+003,2.600114e+002
1.195862e+003,2.735045e+002
1.197790e+003,2.850208e+002
1.199719e+003,3.008951e+002
1.201647e+003,3.258327e+002
1.203575e+003,3.522983e+002
1.205504e+003,3.760268e+002
1.207432e+003,3.978094e+002
1.209361e+003,4.050215e+002
1.211289e+003,3.946353e+002
1.213218e+003,3.730715e+002
1.215146e+003,3.371532e+002
1.217075e+003,2.932128e+002
1.219003e+003,2.524574e+002
1.220932e+003,2.140742e+002
1.222860e+003,1.831949e+002
1.224789e+003,1.636782e+002
1.226717e+003,1.504428e+002
1.228646e+003,1.407202e+002
1.230574e+003,1.346087e+002
1.232502e+003,1.306129e+002
1.234431e+003,1.308856e+002
1.236359e+003,1.306528e+002
1.238288e+003,1.273130e+002
1.240216e+003,1.229401e+002
1.242145e+003,1.222004e+002
1.244073e+003,1.273716e+002
1.246002e+003,1.304274e+002
1.247930e+003,1.291884e+002
1.249859e+003,1.271480e+002
1.251787e+003,1.265894e+002
1.253716e+003,1.272086e+002
1.255644e+003,1.276480e+002
1.257573e+003,1.276964e+002
1.259501e+003,1.277936e+002
1.261429e+003,1.277895e+002
1.263358e+003,1.280513e+002
1.265286e+003,1.285871e+002
1.267215e+003,1.290065e+002
1.269143e+003,1.320752e+002
1.271072e+003,1.413047e+002
1.273000e+003,1.498179e+002
1.274929e+003,1.543632e+002
1.276857e+003,1.561485e+002
1.278786e+003,1.592068e+002
1.280714e+003,1.627955e+002
1.282643e+003,1.688937e+002
1.284571e+003,1.781454e+002
1.286500e+003,1.895535e+002
1.288428e+003,2.044431e+002
1.290356e+003,2.221669e+002
1.292285e+003,2.334764e+002
1.294213e+003,2.348378e+002
1.296142e+003,2.358954e+002
1.298070e+003,2.380196e+002
1.299999e+003,2.427873e+002
1.301927e+003,2.549973e+002
1.303856e+003,2.756543e+002
1.305784e+003,2.849695e+002
1.307713e+003,2.738533e+002
1.309641e+003,2.587719e+002
1.311570e+003,2.456968e+002
1.313498e+003,2.342458e+002
1.315427e+003,2.230612e+002
1.317355e+003,2.105544e+002
1.319283e+003,2.019708e+002
1.321212e+003,1.992730e+002
1.323140e+003,1.988478e+002
1.325069e+003,1.982075e+002
1.326997e+003,1.975848e+002
1.328926e+003,1.999171e+002
1.330854e+003,2.093182e+002
1.332783e+003,2.149244e+002
1.334711e+003,2.128190e+002
1.336640e+003,2.077217e+002
1.338568e+003,2.040613e+002
1.340497e+003,2.016785e+002
1.342425e+003,1.984597e+002
1.344354e+003,1.949851e+002
1.346282e+003,1.893232e+002
1.348210e+003,1.773866e+002
1.350139e+003,1.646857e+002
1.352068e+003,1.584458e+002
1.353996e+003,1.591383e+002
1.355924e+003,1.585627e+002
1.357853e+003,1.551120e+002
1.359781e+003,1.508192e+002
1.361710e+003,1.455621e+002
1.363638e+003,1.403156e+002
1.365567e+003,1.371746e+002
1.367495e+003,1.368616e+002
1.369424e+003,1.367673e+002
1.371352e+003,1.356670e+002
1.373281e+003,1.359574e+002
1.375209e+003,1.408205e+002
1.377138e+003,1.480640e+002
1.379066e+003,1.499319e+002
1.380995e+003,1.410419e+002
1.382923e+003,1.374053e+002
1.384851e+003,1.446916e+002
1.386780e+003,1.529888e+002
1.388708e+003,1.545240e+002
1.390637e+003,1.516434e+002
1.392565e+003,1.547054e+002
1.394494e+003,1.660296e+002
1.396422e+003,1.759948e+002
1.398351e+003,1.803591e+002
1.400279e+003,1.844025e+002
1.402208e+003,1.933762e+002
1.404136e+003,2.052183e+002
1.406065e+003,2.125350e+002
1.407993e+003,2.146641e+002
1.409922e+003,2.128789e+002
1.411850e+003,2.055874e+002
1.413778e+003,1.962487e+002
1.415707e+003,1.853783e+002
1.417635e+003,1.736879e+002
1.419564e+003,1.685280e+002
1.421492e+003,1.728860e+002
1.423421e+003,1.784762e+002
1.425349e+003,1.839970e+002
1.427278e+003,1.896932e+002
1.429206e+003,1.955941e+002
1.431135e+003,2.016299e+002
1.433063e+003,2.082134e+002
1.434992e+003,2.180001e+002
1.436920e+003,2.243846e+002
1.438849e+003,2.264615e+002
1.440777e+003,2.250200e+002
1.442705e+003,2.202144e+002
1.444634e+003,2.122161e+002
1.446562e+003,2.031620e+002
1.448491e+003,1.908217e+002
1.450419e+003,1.814095e+002
1.452348e+003,1.770279e+002
1.454276e+003,1.751258e+002
1.456205e+003,1.740324e+002
1.458133e+003,1.736831e+002
1.460062e+003,1.738178e+002
1.461990e+003,1.744524e+002
1.463919e+003,1.754357e+002
1.465847e+003,1.766509e+002
1.467776e+003,1.782982e+002
1.469704e+003,1.809948e+002
1.471632e+003,1.843109e+002
1.473561e+003,1.868884e+002
1.475489e+003,1.889728e+002
1.477418e+003,1.890406e+002
1.479346e+003,1.823159e+002
1.481275e+003,1.780650e+002
1.483203e+003,1.858895e+002
1.485132e+003,2.010802e+002
1.487060e+003,2.047657e+002
1.488989e+003,1.925157e+002
1.490917e+003,1.823206e+002
1.492846e+003,1.809137e+002
1.494774e+003,1.792063e+002
1.496703e+003,1.697391e+002
1.498631e+003,1.569034e+002
1.500559e+003,1.548430e+002
1.502488e+003,1.695477e+002
1.504416e+003,1.778554e+002
1.506345e+003,1.735382e+002
1.508273e+003,1.677910e+002
1.510202e+003,1.639915e+002
1.512130e+003,1.620292e+002
1.514059e+003,1.616316e+002
1.515987e+003,1.625035e+002
1.517916e+003,1.660998e+002
1.519844e+003,1.763818e+002
1.521773e+003,1.843301e+002
1.523701e+003,1.857184e+002
1.525630e+003,1.841121e+002
1.527558e+003,1.845132e+002
1.529486e+003,1.873784e+002
1.531415e+003,1.869997e+002
1.533343e+003,1.803989e+002
1.535272e+003,1.745222e+002
1.537200e+003,1.706616e+002
1.539129e+003,1.681853e+002
1.541057e+003,1.669657e+002
1.542986e+003,1.669093e+002
1.544914e+003,1.664068e+002
1.546843e+003,1.646983e+002
1.548771e+003,1.647489e+002
1.550700e+003,1.699731e+002
1.552628e+003,1.744164e+002
1.554557e+003,1.717508e+002
1.556485e+003,1.657073e+002
1.558413e+003,1.672732e+002
1.560342e+003,1.782969e+002
1.562270e+003,1.841642e+002
1.564199e+003,1.759709e+002
1.566127e+003,1.712627e+002
1.568056e+003,1.834687e+002
1.569984e+003,2.013727e+002
1.571913e+003,2.082294e+002
1.573841e+003,2.047148e+002
1.575770e+003,2.082297e+002
1.577698e+003,2.219781e+002
1.579627e+003,2.397955e+002
1.581555e+003,2.671571e+002
1.583484e+003,2.908055e+002
1.585412e+003,2.983706e+002
1.587340e+003,2.932027e+002
1.589269e+003,2.883475e+002
1.591197e+003,2.833421e+002
1.593126e+003,2.831840e+002
1.595054e+003,2.920357e+002
1.596983e+003,3.022017e+002
1.598911e+003,3.118694e+002
1.600840e+003,3.191059e+002
1.602768e+003,3.203618e+002
1.604697e+003,3.154915e+002
1.606625e+003,3.049077e+002
1.608554e+003,2.853054e+002
1.610482e+003,2.662606e+002
1.612411e+003,2.502137e+002
1.614339e+003,2.369465e+002
1.616267e+003,2.267428e+002
1.618196e+003,2.194280e+002
1.620124e+003,2.131357e+002
1.622053e+003,2.076747e+002
1.623981e+003,2.037472e+002
1.625910e+003,2.013970e+002
1.627838e+003,2.006423e+002
1.629767e+003,2.046839e+002
1.631695e+003,2.090421e+002
1.633624e+003,2.035405e+002
1.635552e+003,1.861040e+002
1.637481e+003,1.742307e+002
1.639409e+003,1.709906e+002
1.641338e+003,1.702800e+002
1.643266e+003,1.745758e+002
1.645194e+003,1.772092e+002
1.647123e+003,1.705214e+002
1.649051e+003,1.568094e+002
1.650980e+003,1.496488e+002
1.652908e+003,1.513268e+002
1.654837e+003,1.526508e+002
1.656765e+003,1.515860e+002
1.658694e+003,1.511748e+002
1.660622e+003,1.520257e+002
1.662551e+003,1.543956e+002
1.664479e+003,1.601052e+002
1.666408e+003,1.696814e+002
1.668336e+003,1.725948e+002
1.670265e+003,1.639588e+002
1.672193e+003,1.586581e+002
1.674121e+003,1.625816e+002
1.676050e+003,1.661073e+002
1.677978e+003,1.611639e+002
1.679907e+003,1.530329e+002
1.681835e+003,1.541104e+002
1.683764e+003,1.675363e+002
1.685692e+003,1.740692e+002
1.687621e+003,1.688046e+002
1.689549e+003,1.634304e+002
1.691478e+003,1.601810e+002
1.693406e+003,1.578512e+002
1.695335e+003,1.555377e+002
1.697263e+003,1.535698e+002
1.699192e+003,1.528871e+002
1.701120e+003,1.535780e+002
1.703048e+003,1.552871e+002
1.704977e+003,1.591069e+002
1.706905e+003,1.622380e+002
1.708834e+003,1.643293e+002
1.710762e+003,1.650053e+002
1.712691e+003,1.626302e+002
1.714619e+003,1.582906e+002
1.716548e+003,1.585092e+002
1.718476e+003,1.661214e+002
1.720405e+003,1.691190e+002
1.722333e+003,1.608101e+002
1.724262e+003,1.555808e+002
1.726190e+003,1.613272e+002
1.728119e+003,1.690219e+002
1.730047e+003,1.695350e+002
1.731975e+003,1.638057e+002
1.733904e+003,1.590788e+002
1.735832e+003,1.549028e+002
1.737761e+003,1.533248e+002
1.739689e+003,1.565618e+002
1.741618e+003,1.597667e+002
1.743546e+003,1.611382e+002
1.745475e+003,1.618856e+002
1.747403e+003,1.629576e+002
1.749332e+003,1.643503e+002
1.751260e+003,1.667456e+002
1.753189e+003,1.711036e+002
1.755117e+003,1.720720e+002
1.757046e+003,1.650012e+002
1.758974e+003,1.607940e+002
1.760902e+003,1.676788e+002
1.762831e+003,1.756037e+002
1.764759e+003,1.736063e+002
1.766688e+003,1.645210e+002
1.768616e+003,1.617966e+002
1.770545e+003,1.668614e+002
1.772473e+003,1.703872e+002
1.774402e+003,1.701325e+002
1.776330e+003,1.694416e+002
1.778259e+003,1.679087e+002
1.780187e+003,1.680235e+002
1.782116e+003,1.752914e+002
1.784044e+003,1.852507e+002
1.785973e+003,1.831717e+002
1.787901e+003,1.677732e+002
1.789829e+003,1.589625e+002
1.791758e+003,1.613388e+002
1.793686e+003,1.658202e+002
1.795615e+003,1.702394e+002
1.797543e+003,1.746647e+002
1.799472e+003,1.815559e+002
1.801400e+003,1.875204e+002
1.803329e+003,1.836200e+002
1.805257e+003,1.702756e+002
1.807186e+003,1.654378e+002
1.809114e+003,1.746866e+002
1.811043e+003,1.807322e+002
1.812971e+003,1.755339e+002
1.814900e+003,1.697538e+002
1.816828e+003,1.703056e+002
1.818756e+003,1.732357e+002
1.820685e+003,1.730768e+002
1.822613e+003,1.701664e+002
1.824542e+003,1.664197e+002
1.826470e+003,1.606091e+002
1.828399e+003,1.584575e+002
1.830327e+003,1.643286e+002
1.832256e+003,1.693895e+002
1.834184e+003,1.700592e+002
1.836113e+003,1.689028e+002
1.838041e+003,1.685863e+002
1.839970e+003,1.685811e+002
1.841898e+003,1.662409e+002
1.843827e+003,1.597651e+002
1.845755e+003,1.578568e+002
1.847684e+003,1.650271e+002
1.849612e+003,1.700668e+002
1.851541e+003,1.675322e+002
1.853469e+003,1.658826e+002
1.855397e+003,1.733275e+002
1.857326e+003,1.834045e+002
1.859254e+003,1.838877e+002
1.861183e+003,1.745798e+002
1.863111e+003,1.709968e+002
1.865040e+003,1.766878e+002
1.866968e+003,1.804425e+002
1.868897e+003,1.796574e+002
1.870825e+003,1.794517e+002
1.872754e+003,1.831866e+002
1.874682e+003,1.864569e+002
1.876611e+003,1.845929e+002
1.878539e+003,1.795005e+002
1.880468e+003,1.767404e+002
1.882396e+003,1.764267e+002
1.884324e+003,1.761855e+002
1.886253e+003,1.756064e+002
1.888181e+003,1.757681e+002
1.890110e+003,1.770667e+002
1.892038e+003,1.788950e+002
1.893967e+003,1.818193e+002
1.895895e+003,1.843884e+002
1.897824e+003,1.847687e+002
1.899752e+003,1.836110e+002
1.901681e+003,1.828168e+002
1.903609e+003,1.824538e+002
1.905538e+003,1.831216e+002
1.907466e+003,1.860615e+002
1.909395e+003,1.871795e+002
1.911323e+003,1.837066e+002
1.913251e+003,1.799067e+002
1.915180e+003,1.763787e+002
1.917108e+003,1.749217e+002
1.919037e+003,1.796736e+002
1.920965e+003,1.891055e+002
1.922894e+003,1.936646e+002
1.924822e+003,1.915156e+002
1.926751e+003,1.916707e+002
1.928679e+003,1.988162e+002
1.930608e+003,2.018449e+002
1.932536e+003,1.939520e+002
1.934465e+003,1.869633e+002
1.936393e+003,1.900632e+002
1.938322e+003,1.962039e+002
1.940250e+003,1.946165e+002
1.942178e+003,1.867961e+002
1.944107e+003,1.843167e+002
1.946035e+003,1.887950e+002
1.947964e+003,1.920152e+002
1.949892e+003,1.932295e+002
1.951821e+003,1.939826e+002
1.953749e+003,1.951505e+002
1.955678e+003,1.953957e+002
1.957606e+003,1.932352e+002
1.959535e+003,1.904669e+002
1.961463e+003,1.891628e+002
1.963392e+003,1.888199e+002
1.965320e+003,1.876347e+002
1.967249e+003,1.855223e+002
1.969177e+003,1.850208e+002
1.971105e+003,1.864397e+002
1.973034e+003,1.895535e+002
1.974962e+003,1.978636e+002
1.976891e+003,2.029007e+002
1.978819e+003,1.963335e+002
1.980748e+003,1.888682e+002
1.982676e+003,1.921088e+002
1.984605e+003,2.015285e+002
1.986533e+003,2.064226e+002
1.988462e+003,2.065641e+002
1.990390e+003,2.052478e+002
1.992319e+003,1.997128e+002
1.994247e+003,1.976490e+002
1.996176e+003,2.023436e+002
1.998104e+003,2.060808e+002
2.000032e+003,2.058745e+002
2.001961e+003,2.052569e+002
2.003889e+003,2.071531e+002
2.005818e+003,2.095114e+002
2.007746e+003,2.087637e+002
2.009675e+003,2.055214e+002
2.011603e+003,2.040973e+002
2.013532e+003,2.046966e+002
2.015460e+003,2.049719e+002
2.017389e+003,2.046761e+002
2.019317e+003,2.043659e+002
2.021246e+003,2.043442e+002
2.023174e+003,2.042030e+002
2.025103e+003,2.031384e+002
2.027031e+003,2.024204e+002
2.028959e+003,2.023608e+002
2.030888e+003,2.036749e+002
2.032816e+003,2.102939e+002
2.034745e+003,2.213828e+002
2.036673e+003,2.212433e+002
2.038602e+003,2.024470e+002
2.040530e+003,1.944566e+002
2.042459e+003,2.098324e+002
2.044387e+003,2.176211e+002
2.046316e+003,2.027748e+002
2.048244e+003,1.922843e+002
2.050173e+003,2.044053e+002
2.052101e+003,2.209409e+002
2.054030e+003,2.239907e+002
2.055958e+003,2.187155e+002
2.057886e+003,2.164198e+002
2.059815e+003,2.169264e+002
2.061743e+003,2.185656e+002
2.063672e+003,2.214059e+002
2.065600e+003,2.245161e+002
2.067529e+003,2.293074e+002
2.069457e+003,2.298283e+002
2.071386e+003,2.186110e+002
2.073314e+003,2.107442e+002
2.075243e+003,2.170183e+002
2.077171e+003,2.266413e+002
2.079100e+003,2.296638e+002
2.081028e+003,2.292555e+002
2.082957e+003,2.319980e+002
2.084885e+003,2.374722e+002
2.086813e+003,2.401687e+002
2.088742e+003,2.396887e+002
2.090670e+003,2.371289e+002
2.092599e+003,2.299364e+002
2.094527e+003,2.256537e+002
2.096456e+003,2.260541e+002
2.098384e+003,2.286060e+002
2.100313e+003,2.350435e+002
2.102241e+003,2.405636e+002
2.104170e+003,2.406454e+002
2.106098e+003,2.390366e+002
2.108027e+003,2.403153e+002
2.109955e+003,2.438902e+002
2.111884e+003,2.491882e+002
2.113812e+003,2.561299e+002
2.115740e+003,2.573990e+002
2.117669e+003,2.503871e+002
2.119597e+003,2.449655e+002
2.121526e+003,2.405642e+002
2.123454e+003,2.404694e+002
2.125383e+003,2.521454e+002
2.127311e+003,2.595904e+002
2.129240e+003,2.501427e+002
2.131168e+003,2.377022e+002
2.133097e+003,2.342702e+002
2.135025e+003,2.366442e+002
2.136954e+003,2.406542e+002
2.138882e+003,2.454738e+002
2.140811e+003,2.453823e+002
2.142739e+003,2.403974e+002
2.144667e+003,2.428635e+002
2.146596e+003,2.565667e+002
2.148524e+003,2.647650e+002
2.150453e+003,2.621271e+002
2.152381e+003,2.576540e+002
2.154310e+003,2.517404e+002
2.156238e+003,2.475710e+002
2.158167e+003,2.474322e+002
2.160095e+003,2.491232e+002
2.162024e+003,2.519232e+002
2.163952e+003,2.545699e+002
2.165881e+003,2.546525e+002
2.167809e+003,2.524946e+002
2.169738e+003,2.488928e+002
2.171666e+003,2.436715e+002
2.173594e+003,2.441167e+002
2.175523e+003,2.516729e+002
2.177451e+003,2.579835e+002
2.179380e+003,2.619064e+002
2.181308e+003,2.641263e+002
2.183237e+003,2.656276e+002
2.185165e+003,2.646639e+002
2.187094e+003,2.570088e+002
2.189022e+003,2.507447e+002
2.190951e+003,2.537339e+002
2.192879e+003,2.597844e+002
2.194808e+003,2.613170e+002
2.196736e+003,2.592779e+002
2.198665e+003,2.555865e+002
2.200593e+003,2.502892e+002
2.202521e+003,2.482418e+002
2.204450e+003,2.497016e+002
2.206378e+003,2.511755e+002
2.208307e+003,2.523930e+002
2.210235e+003,2.539474e+002
2.212164e+003,2.567997e+002
2.214092e+003,2.582584e+002
2.216021e+003,2.539762e+002
2.217949e+003,2.527990e+002
2.219878e+003,2.625109e+002
2.221806e+003,2.727886e+002
2.223735e+003,2.759729e+002
2.225663e+003,2.745107e+002
2.227592e+003,2.695482e+002
2.229520e+003,2.631100e+002
2.231448e+003,2.613680e+002
2.233377e+003,2.638492e+002
2.235305e+003,2.654819e+002
2.237234e+003,2.662495e+002
2.239162e+003,2.692339e+002
2.241091e+003,2.756992e+002
2.243019e+003,2.788390e+002
2.244948e+003,2.745673e+002
2.246876e+003,2.733480e+002
2.248805e+003,2.831131e+002
2.250733e+003,2.887177e+002
2.252662e+003,2.795555e+002
2.254590e+003,2.701432e+002
2.256519e+003,2.699754e+002
2.258447e+003,2.737252e+002
2.260375e+003,2.776293e+002
2.262304e+003,2.810543e+002
2.264232e+003,2.829587e+002
2.266161e+003,2.834208e+002
2.268089e+003,2.816364e+002
2.270018e+003,2.781002e+002
2.271946e+003,2.776382e+002
2.273875e+003,2.806873e+002
2.275803e+003,2.843741e+002
2.277732e+003,2.894862e+002
2.279660e+003,2.931110e+002
2.281589e+003,2.948269e+002
2.283517e+003,2.956255e+002
2.285446e+003,2.953870e+002
2.287374e+003,2.946995e+002
2.289302e+003,2.921048e+002
2.291231e+003,2.910446e+002
2.293159e+003,2.932654e+002
2.295088e+003,2.977767e+002
2.297016e+003,3.070328e+002
2.298945e+003,3.155764e+002
2.300873e+003,3.140450e+002
2.302802e+003,3.066763e+002
2.304730e+003,3.040367e+002
2.306659e+003,3.054933e+002
2.308587e+003,3.059677e+002
2.310516e+003,3.052993e+002
2.312444e+003,3.050770e+002
2.314373e+003,3.055717e+002
2.316301e+003,3.045420e+002
2.318229e+003,3.006326e+002
2.320158e+003,3.011056e+002
2.322086e+003,3.110786e+002
2.324015e+003,3.162060e+002
2.325943e+003,3.072605e+002
2.327872e+003,2.995358e+002
2.329800e+003,2.969839e+002
2.331729e+003,2.994374e+002
2.333657e+003,3.140417e+002
2.335586e+003,3.257683e+002
2.337514e+003,3.162393e+002
2.339443e+003,3.007226e+002
2.341371e+003,2.970439e+002
2.343300e+003,3.021487e+002
2.345228e+003,3.151011e+002
2.347156e+003,3.309370e+002
2.349085e+003,3.313808e+002
2.351013e+003,3.179216e+002
2.352942e+003,3.129739e+002
2.354870e+003,3.181380e+002
2.356799e+003,3.227895e+002
2.358727e+003,3.290561e+002
2.360656e+003,3.279557e+002
2.362584e+003,3.143767e+002
2.364513e+003,3.079264e+002
2.366441e+003,3.139264e+002
2.368370e+003,3.206001e+002
2.370298e+003,3.241874e+002
2.372227e+003,3.285990e+002
2.374155e+003,3.389833e+002
2.376083e+003,3.457898e+002
2.378012e+003,3.424614e+002
2.379940e+003,3.358999e+002
2.381869e+003,3.283723e+002
2.383797e+003,3.228766e+002
2.385726e+003,3.239083e+002
2.387654e+003,3.278336e+002
2.389583e+003,3.300209e+002
2.391511e+003,3.310294e+002
2.393440e+003,3.309707e+002
2.395368e+003,3.307550e+002
2.397297e+003,3.347144e+002
2.399225e+003,3.422050e+002
2.401154e+003,3.443155e+002
2.403082e+003,3.399894e+002
2.405010e+003,3.382943e+002
2.406939e+003,3.399176e+002
2.408867e+003,3.405192e+002
2.410796e+003,3.393281e+002
2.412724e+003,3.406296e+002
2.414653e+003,3.461208e+002
2.416581e+003,3.501643e+002
2.418510e+003,3.480704e+002
2.420438e+003,3.506796e+002
2.422367e+003,3.664108e+002
2.424295e+003,3.787066e+002
2.426224e+003,3.809603e+002
2.428152e+003,3.797581e+002
2.430081e+003,3.763046e+002
2.432009e+003,3.729956e+002
2.433938e+003,3.724434e+002
2.435866e+003,3.715172e+002
2.437794e+003,3.665848e+002
2.439723e+003,3.610463e+002
2.441651e+003,3.584064e+002
2.443580e+003,3.575319e+002
2.445508e+003,3.572719e+002
2.447437e+003,3.570433e+002
2.449365e+003,3.553776e+002
2.451294e+003,3.527815e+002
2.453222e+003,3.513578e+002
2.455151e+003,3.509553e+002
2.457079e+003,3.512906e+002
2.459008e+003,3.521761e+002
2.460936e+003,3.499049e+002
2.462865e+003,3.438722e+002
2.464793e+003,3.394565e+002
2.466721e+003,3.368415e+002
2.468650e+003,3.345454e+002
2.470578e+003,3.311706e+002
2.472507e+003,3.340495e+002
2.474435e+003,3.459915e+002
2.476364e+003,3.544222e+002
2.478292e+003,3.562896e+002
2.480221e+003,3.565147e+002
2.482149e+003,3.574644e+002
2.484078e+003,3.553801e+002
2.486006e+003,3.453188e+002
2.487935e+003,3.385926e+002
2.489863e+003,3.421310e+002
2.491792e+003,3.444226e+002
2.493720e+003,3.377717e+002
2.495648e+003,3.339796e+002
2.497577e+003,3.429495e+002
2.499505e+003,3.524425e+002
2.501434e+003,3.554300e+002
2.503362e+003,3.544771e+002
2.505291e+003,3.497850e+002
2.507219e+003,3.443884e+002
2.509148e+003,3.402920e+002
2.511076e+003,3.382912e+002
2.513005e+003,3.400649e+002
2.514933e+003,3.439318e+002
2.516862e+003,3.492013e+002
2.518790e+003,3.536373e+002
2.520719e+003,3.525549e+002
2.522647e+003,3.475510e+002
2.524575e+003,3.409302e+002
2.526504e+003,3.344005e+002
2.528432e+003,3.357940e+002
2.530361e+003,3.438508e+002
2.532289e+003,3.532744e+002
2.534218e+003,3.628461e+002
2.536146e+003,3.641348e+002
2.538075e+003,3.570899e+002
2.540003e+003,3.553257e+002
2.541932e+003,3.597644e+002
2.543860e+003,3.635435e+002
2.545789e+003,3.675585e+002
2.547717e+003,3.647147e+002
2.549646e+003,3.539712e+002
2.551574e+003,3.460190e+002
2.553502e+003,3.420242e+002
2.555431e+003,3.391330e+002
2.557359e+003,3.349562e+002
2.559288e+003,3.375504e+002
2.561216e+003,3.556505e+002
2.563145e+003,3.641707e+002
2.565073e+003,3.575497e+002
2.567002e+003,3.528181e+002
2.568930e+003,3.524231e+002
2.570859e+003,3.558246e+002
2.572787e+003,3.671938e+002
2.574716e+003,3.730126e+002
2.576644e+003,3.632606e+002
2.578573e+003,3.575644e+002
2.580501e+003,3.655588e+002
2.582429e+003,3.706898e+002
2.584358e+003,3.671764e+002
2.586287e+003,3.630511e+002
2.588215e+003,3.635584e+002
2.590144e+003,3.606035e+002
2.592072e+003,3.454347e+002
2.594000e+003,3.334138e+002
2.595929e+003,3.344145e+002
2.597857e+003,3.373277e+002
2.599786e+003,3.341113e+002
2.601714e+003,3.337965e+002
2.603643e+003,3.447031e+002
2.605571e+003,3.551092e+002
2.607500e+003,3.568763e+002
2.609428e+003,3.555540e+002
2.611357e+003,3.531227e+002
2.613285e+003,3.519350e+002
2.615214e+003,3.552975e+002
2.617142e+003,3.592790e+002
2.619071e+003,3.631420e+002
2.620999e+003,3.629775e+002
2.622927e+003,3.504149e+002
2.624856e+003,3.373953e+002
2.626784e+003,3.388695e+002
2.628713e+003,3.436087e+002
2.630641e+003,3.375924e+002
2.632570e+003,3.288048e+002
2.634498e+003,3.244838e+002
2.636427e+003,3.254718e+002
2.638355e+003,3.384818e+002
2.640284e+003,3.520428e+002
2.642212e+003,3.464028e+002
2.644141e+003,3.354315e+002
2.646069e+003,3.428964e+002
2.647998e+003,3.567104e+002
2.649926e+003,3.561890e+002
2.651854e+003,3.490331e+002
2.653783e+003,3.469948e+002
2.655711e+003,3.480928e+002
2.657640e+003,3.517622e+002
2.659568e+003,3.546479e+002
2.661497e+003,3.458786e+002
2.663425e+003,3.345266e+002
2.665354e+003,3.442309e+002
2.667282e+003,3.622638e+002
2.669211e+003,3.592861e+002
2.671139e+003,3.456052e+002
2.673068e+003,3.401802e+002
2.674996e+003,3.402890e+002
2.676925e+003,3.403948e+002
2.678853e+003,3.411905e+002
2.680781e+003,3.452700e+002
2.682710e+003,3.509527e+002
2.684638e+003,3.550999e+002
2.686567e+003,3.571816e+002
2.688495e+003,3.552919e+002
2.690424e+003,3.511077e+002
2.692352e+003,3.474406e+002
2.694281e+003,3.452055e+002
2.696209e+003,3.487290e+002
2.698138e+003,3.546785e+002
2.700066e+003,3.519866e+002
2.701995e+003,3.461280e+002
2.703923e+003,3.506271e+002
2.705852e+003,3.606519e+002
2.707780e+003,3.665002e+002
2.709708e+003,3.676200e+002
2.711637e+003,3.593904e+002
2.713565e+003,3.474159e+002
2.715494e+003,3.465598e+002
2.717422e+003,3.513605e+002
2.719351e+003,3.496764e+002
2.721279e+003,3.459384e+002
2.723208e+003,3.520617e+002
2.725136e+003,3.618793e+002
2.727065e+003,3.600863e+002
2.728993e+003,3.529912e+002
2.730922e+003,3.533434e+002
2.732850e+003,3.570383e+002
2.734779e+003,3.556207e+002
2.736707e+003,3.533775e+002
2.738635e+003,3.612801e+002
2.740564e+003,3.719449e+002
2.742492e+003,3.703339e+002
2.744421e+003,3.643357e+002
2.746349e+003,3.687417e+002
2.748278e+003,3.742763e+002
2.750206e+003,3.623672e+002
2.752135e+003,3.472957e+002
2.754063e+003,3.550963e+002
2.755992e+003,3.675858e+002
2.757920e+003,3.550748e+002
2.759849e+003,3.387075e+002
2.761777e+003,3.465843e+002
2.763706e+003,3.591478e+002
2.765634e+003,3.522074e+002
2.767563e+003,3.403744e+002
2.769491e+003,3.368605e+002
2.771419e+003,3.392193e+002
2.773348e+003,3.491812e+002
2.775276e+003,3.585778e+002
2.777205e+003,3.600550e+002
2.779133e+003,3.577963e+002
2.781062e+003,3.518196e+002
2.782990e+003,3.478838e+002
2.784919e+003,3.504176e+002
2.786847e+003,3.567108e+002
2.788776e+003,3.733717e+002
2.790704e+003,3.817361e+002
2.792633e+003,3.614966e+002
2.794561e+003,3.421187e+002
2.796490e+003,3.405106e+002
2.798418e+003,3.446496e+002
2.800346e+003,3.521719e+002
2.802275e+003,3.589243e+002
2.804203e+003,3.628885e+002
2.806132e+003,3.654303e+002
2.808060e+003,3.673914e+002
2.809989e+003,3.665900e+002
2.811917e+003,3.583444e+002
2.813846e+003,3.564249e+002
2.815774e+003,3.704171e+002
2.817703e+003,3.778566e+002
2.819631e+003,3.651372e+002
2.821560e+003,3.572280e+002
2.823488e+003,3.581503e+002
2.825417e+003,3.655920e+002
2.827345e+003,3.825464e+002
2.829273e+003,3.923682e+002
2.831202e+003,3.886874e+002
2.833130e+003,3.881878e+002
2.835059e+003,3.927020e+002
2.836987e+003,4.013925e+002
2.838916e+003,4.149062e+002
2.840844e+003,4.265318e+002
2.842773e+003,4.354624e+002
2.844701e+003,4.434763e+002
2.846630e+003,4.499205e+002
2.848558e+003,4.632897e+002
2.850487e+003,4.844571e+002
2.852415e+003,4.940823e+002
2.854344e+003,4.930530e+002
2.856272e+003,4.915997e+002
2.858200e+003,4.898055e+002
2.860129e+003,4.853991e+002
2.862057e+003,4.784913e+002
2.863986e+003,4.689875e+002
2.865914e+003,4.580041e+002
2.867843e+003,4.497498e+002
2.869771e+003,4.428128e+002
2.871700e+003,4.318331e+002
2.873628e+003,4.212587e+002
2.875557e+003,4.222422e+002
2.877485e+003,4.273075e+002
2.879414e+003,4.240912e+002
2.881342e+003,4.192081e+002
2.883271e+003,4.210898e+002
2.885199e+003,4.239395e+002
2.887127e+003,4.186980e+002
2.889056e+003,4.158220e+002
2.890984e+003,4.250168e+002
2.892913e+003,4.376758e+002
2.894841e+003,4.474407e+002
2.896770e+003,4.604508e+002
2.898698e+003,4.794878e+002
2.900627e+003,5.029321e+002
2.902555e+003,5.237727e+002
2.904484e+003,5.623688e+002
2.906412e+003,6.297322e+002
2.908341e+003,7.044235e+002
2.910269e+003,7.871349e+002
2.912198e+003,8.632850e+002
2.914126e+003,9.279827e+002
2.916054e+003,1.002556e+003
2.917983e+003,1.094938e+003
2.919911e+003,1.158646e+003
2.921840e+003,1.182057e+003
2.923768e+003,1.197609e+003
2.925697e+003,1.207770e+003
2.927625e+003,1.187179e+003
2.929554e+003,1.137003e+003
2.931482e+003,1.068243e+003
2.933411e+003,9.868609e+002
2.935339e+003,9.277397e+002
2.937268e+003,8.911802e+002
2.939196e+003,8.907941e+002
2.941125e+003,9.089529e+002
2.943053e+003,9.054758e+002
2.944981e+003,8.904132e+002
2.946910e+003,8.779072e+002
2.948838e+003,8.663322e+002
2.950767e+003,8.531057e+002
2.952695e+003,8.405180e+002
2.954624e+003,8.300066e+002
2.956552e+003,8.213962e+002
2.958481e+003,8.153673e+002
2.960409e+003,8.097895e+002
2.962338e+003,8.030988e+002
2.964266e+003,7.976657e+002
2.966195e+003,7.991746e+002
2.968123e+003,7.908892e+002
2.970052e+003,7.647186e+002
2.971980e+003,7.319987e+002
2.973908e+003,6.913295e+002
2.975837e+003,6.540872e+002
2.977765e+003,6.202256e+002
2.979694e+003,6.020317e+002
2.981622e+003,6.058152e+002
2.983551e+003,5.984355e+002
2.985479e+003,5.797092e+002
2.987408e+003,5.561049e+002
2.989336e+003,5.303398e+002
2.991265e+003,5.166611e+002
2.993193e+003,5.123477e+002
2.995122e+003,5.099274e+002
2.997050e+003,5.088548e+002
2.998979e+003,5.065755e+002
3.000907e+003,5.061996e+002
3.002835e+003,5.131336e+002
3.004764e+003,5.217850e+002
3.006692e+003,5.278130e+002
3.008621e+003,5.311982e+002
3.010549e+003,5.305927e+002
3.012478e+003,5.297303e+002
3.014406e+003,5.270669e+002
3.016335e+003,5.305125e+002
3.018263e+003,5.409597e+002
3.020192e+003,5.627927e+002
3.022120e+003,5.982117e+002
3.024049e+003,6.386212e+002
3.025977e+003,6.827491e+002
3.027906e+003,7.333732e+002
3.029834e+003,7.939169e+002
3.031762e+003,8.274241e+002
3.033691e+003,8.369612e+002
3.035619e+003,8.574844e+002
3.037548e+003,8.873054e+002
3.039476e+003,9.072662e+002
3.041405e+003,9.303776e+002
3.043333e+003,9.796189e+002
3.045262e+003,1.064537e+003
3.047190e+003,1.206637e+003
3.049119e+003,1.375553e+003
3.051047e+003,1.537424e+003
3.052976e+003,1.716077e+003
3.054904e+003,1.946962e+003
3.056833e+003,2.154164e+003
3.058761e+003,2.336248e+003
3.060689e+003,2.427815e+003
3.062618e+003,2.400949e+003
3.064546e+003,2.313504e+003
3.066475e+003,2.167463e+003
3.068403e+003,1.995086e+003
3.070332e+003,1.795692e+003
3.072260e+003,1.579201e+003
3.074189e+003,1.344756e+003
3.076117e+003,1.121613e+003
3.078046e+003,9.195732e+002
3.079974e+003,7.731214e+002
3.081903e+003,6.728978e+002
3.083831e+003,6.092927e+002
3.085760e+003,5.680779e+002
3.087688e+003,5.354906e+002
3.089616e+003,5.081091e+002
3.091545e+003,4.816110e+002
3.093473e+003,4.617449e+002
3.095402e+003,4.549018e+002
3.097330e+003,4.502822e+002
3.099259e+003,4.452594e+002
3.101187e+003,4.405058e+002
3.103116e+003,4.369267e+002
3.105044e+003,4.313025e+002
3.106973e+003,4.232776e+002
3.108901e+003,4.177711e+002
3.110830e+003,4.149934e+002
3.112758e+003,4.112210e+002
3.114687e+003,4.064774e+002
3.116615e+003,4.006365e+002
3.118543e+003,3.941898e+002
3.120472e+003,3.860536e+002
3.122400e+003,3.802757e+002
3.124329e+003,3.852914e+002
3.126257e+003,3.901424e+002
3.128186e+003,3.872154e+002
3.130114e+003,3.814879e+002
3.132043e+003,3.737139e+002
3.133971e+003,3.667222e+002
3.135900e+003,3.582896e+002
3.137828e+003,3.603262e+002
3.139757e+003,3.758325e+002
3.141685e+003,3.806668e+002
3.143614e+003,3.716355e+002
3.145542e+003,3.638854e+002
3.147470e+003,3.575837e+002
3.149399e+003,3.538863e+002
3.151327e+003,3.529208e+002
3.153256e+003,3.552825e+002
3.155184e+003,3.597339e+002
3.157113e+003,3.651694e+002
3.159041e+003,3.711440e+002
3.160970e+003,3.778998e+002
3.162898e+003,3.836666e+002
3.164827e+003,3.914684e+002
3.166755e+003,3.891915e+002
3.168684e+003,3.720443e+002
3.170612e+003,3.608784e+002
3.172541e+003,3.601450e+002
3.174469e+003,3.546769e+002
3.176397e+003,3.443161e+002
3.178326e+003,3.406832e+002
3.180254e+003,3.419366e+002
3.182183e+003,3.437239e+002
3.184111e+003,3.450777e+002
3.186040e+003,3.453938e+002
3.187968e+003,3.433565e+002
3.189897e+003,3.352290e+002
3.191825e+003,3.294731e+002
3.193754e+003,3.311192e+002
3.195682e+003,3.358428e+002
3.197611e+003,3.443106e+002
3.199539e+003,3.485484e+002
3.201468e+003,3.467220e+002
3.203396e+003,3.459875e+002
3.205324e+003,3.466034e+002
3.207253e+003,3.381070e+002
3.209181e+003,3.251561e+002
3.211110e+003,3.224647e+002
3.213038e+003,3.240871e+002
3.214967e+003,3.218221e+002
3.216895e+003,3.177237e+002
3.218824e+003,3.108354e+002
3.220752e+003,3.074833e+002
3.222681e+003,3.161180e+002
3.224609e+003,3.174565e+002
3.226538e+003,3.050288e+002
3.228466e+003,3.019347e+002
3.230395e+003,3.124285e+002
3.232323e+003,3.120739e+002
3.234251e+003,3.020089e+002
3.236180e+003,2.995178e+002
3.238108e+003,3.010372e+002
3.240037e+003,2.986712e+002
3.241965e+003,2.960213e+002
3.243894e+003,3.007173e+002
3.245822e+003,3.013578e+002
3.247751e+003,2.868771e+002
3.249679e+003,2.771572e+002
3.251608e+003,2.826394e+002
3.253536e+003,2.871325e+002
3.255465e+003,2.893988e+002
3.257393e+003,2.898333e+002
3.259322e+003,2.888041e+002
3.261250e+003,2.935706e+002
3.263178e+003,3.002657e+002
3.265107e+003,2.942425e+002
3.267035e+003,2.855620e+002
3.268964e+003,2.862453e+002
3.270892e+003,2.897953e+002
3.272821e+003,2.954675e+002
3.274749e+003,2.949780e+002
3.276678e+003,2.805507e+002
3.278606e+003,2.752704e+002
3.280535e+003,2.844916e+002
3.282463e+003,2.909560e+002
3.284392e+003,2.940178e+002
3.286320e+003,2.925300e+002
3.288249e+003,2.881766e+002
3.290177e+003,2.837875e+002
3.292105e+003,2.808943e+002
3.294034e+003,2.822690e+002
3.295962e+003,2.838167e+002
3.297891e+003,2.838682e+002
3.299819e+003,2.813557e+002
3.301748e+003,2.748948e+002
3.303676e+003,2.714944e+002
3.305605e+003,2.725234e+002
3.307533e+003,2.769719e+002
3.309462e+003,2.833164e+002
3.311390e+003,2.800987e+002
3.313319e+003,2.733040e+002
3.315247e+003,2.711779e+002
3.317176e+003,2.742765e+002
3.319104e+003,2.895066e+002
3.321032e+003,2.974815e+002
3.322961e+003,2.830498e+002
3.324889e+003,2.724842e+002
3.326818e+003,2.688502e+002
3.328746e+003,2.726920e+002
3.330675e+003,2.830805e+002
3.332603e+003,2.853076e+002
3.334532e+003,2.815547e+002
3.336460e+003,2.761868e+002
3.338389e+003,2.720564e+002
3.340317e+003,2.748818e+002
3.342246e+003,2.757749e+002
3.344174e+003,2.659298e+002
3.346103e+003,2.634144e+002
3.348031e+003,2.745867e+002
3.349959e+003,2.833521e+002
3.351888e+003,2.885717e+002
3.353816e+003,2.905312e+002
3.355745e+003,2.885346e+002
3.357673e+003,2.782344e+002
3.359602e+003,2.667266e+002
3.361530e+003,2.619194e+002
3.363459e+003,2.628773e+002
3.365387e+003,2.749572e+002
3.367316e+003,2.804012e+002
3.369244e+003,2.718599e+002
3.371173e+003,2.669718e+002
3.373101e+003,2.669248e+002
3.375030e+003,2.714148e+002
3.376958e+003,2.777393e+002
3.378886e+003,2.744100e+002
3.380815e+003,2.700046e+002
3.382743e+003,2.769980e+002
3.384672e+003,2.830229e+002
3.386600e+003,2.790275e+002
3.388529e+003,2.755947e+002
3.390457e+003,2.746011e+002
3.392386e+003,2.752471e+002
3.394314e+003,2.773727e+002
3.396243e+003,2.773665e+002
3.398171e+003,2.771425e+002
3.400100e+003,2.850073e+002
3.402028e+003,2.906709e+002
3.403957e+003,2.769561e+002
3.405885e+003,2.670816e+002
3.407813e+003,2.750482e+002
3.409742e+003,2.775224e+002
3.411670e+003,2.686559e+002
3.413599e+003,2.678457e+002
3.415527e+003,2.743748e+002
3.417456e+003,2.795092e+002
3.419384e+003,2.829142e+002
3.421313e+003,2.856939e+002
3.423241e+003,2.842690e+002
3.425170e+003,2.717989e+002
3.427098e+003,2.622514e+002
3.429027e+003,2.586860e+002
3.430955e+003,2.636402e+002
3.432884e+003,2.776617e+002
3.434812e+003,2.848162e+002
3.436740e+003,2.852033e+002
3.438669e+003,2.746721e+002
3.440597e+003,2.650352e+002
3.442526e+003,2.735542e+002
3.444454e+003,2.801277e+002
3.446383e+003,2.742773e+002
3.448311e+003,2.703370e+002
3.450240e+003,2.721019e+002
3.452168e+003,2.713304e+002
3.454097e+003,2.686315e+002
3.456025e+003,2.692562e+002
3.457954e+003,2.724067e+002
3.459882e+003,2.809388e+002
3.461811e+003,2.850762e+002
3.463739e+003,2.763193e+002
3.465667e+003,2.709858e+002
3.467596e+003,2.777276e+002
3.469524e+003,2.763427e+002
3.471453e+003,2.684807e+002
3.473381e+003,2.740803e+002
3.475310e+003,2.850395e+002
3.477238e+003,2.859507e+002
3.479167e+003,2.812281e+002
3.481095e+003,2.678680e+002
3.483024e+003,2.637682e+002
3.484952e+003,2.796607e+002
3.486881e+003,2.806017e+002
3.488809e+003,2.657658e+002
3.490738e+003,2.678226e+002
3.492666e+003,2.782029e+002
3.494594e+003,2.710026e+002
3.496523e+003,2.652004e+002
3.498451e+003,2.825757e+002
3.500380e+003,2.933203e+002
3.502308e+003,2.882955e+002
3.504237e+003,2.829069e+002
3.506165e+003,2.789159e+002
3.508094e+003,2.763449e+002
3.510022e+003,2.752507e+002
3.511951e+003,2.755706e+002
3.513879e+003,2.778628e+002
3.515808e+003,2.850504e+002
3.517736e+003,2.901786e+002
3.519665e+003,2.918131e+002
3.521593e+003,2.883820e+002
3.523521e+003,2.799833e+002
3.525450e+003,2.844076e+002
3.527378e+003,2.938105e+002
3.529307e+003,2.920504e+002
3.531235e+003,2.881935e+002
3.533164e+003,2.887236e+002
3.535092e+003,2.903202e+002
3.537021e+003,2.933133e+002
3.538949e+003,2.924596e+002
3.540878e+003,2.882603e+002
3.542806e+003,2.843214e+002
3.544735e+003,2.823575e+002
3.546663e+003,2.886922e+002
3.548592e+003,2.922335e+002
3.550520e+003,2.844216e+002
3.552448e+003,2.792082e+002
3.554377e+003,2.808346e+002
3.556305e+003,2.776492e+002
3.558234e+003,2.713345e+002
3.560162e+003,2.695261e+002
3.562091e+003,2.713593e+002
3.564019e+003,2.780558e+002
3.565948e+003,2.834899e+002
3.567876e+003,2.872630e+002
3.569805e+003,2.800626e+002
3.571733e+003,2.617122e+002
3.573662e+003,2.651020e+002
3.575590e+003,2.796562e+002
3.577519e+003,2.722216e+002
3.579447e+003,2.642184e+002
3.581376e+003,2.758565e+002
3.583304e+003,2.865794e+002
3.585233e+003,2.916258e+002
3.587161e+003,2.886251e+002
3.589090e+003,2.794013e+002
3.591018e+003,2.824566e+002
3.592947e+003,2.900398e+002
3.594875e+003,2.929340e+002
3.596803e+003,2.904023e+002
3.598732e+003,2.734692e+002
3.600660e+003,2.737245e+002
3.602589e+003,2.943775e+002
3.604517e+003,2.997976e+002
3.606446e+003,2.893030e+002
3.608374e+003,2.440846e+002
3.610303e+003,2.125444e+002
3.612231e+003,2.529440e+002
3.614160e+003,2.816353e+002
3.616088e+003,2.777062e+002
3.618017e+003,2.792444e+002
3.619945e+003,2.872087e+002
3.621874e+003,2.816986e+002
3.623802e+003,2.739768e+002
3.625730e+003,2.793708e+002
3.627659e+003,2.852352e+002
3.629587e+003,2.854592e+002
3.631516e+003,2.880879e+002
3.633444e+003,2.939478e+002
3.635373e+003,2.911444e+002
3.637301e+003,2.854108e+002
3.639230e+003,2.893456e+002
3.641158e+003,2.946054e+002
3.643087e+003,2.977905e+002
3.645015e+003,2.951978e+002
3.646944e+003,2.856764e+002
3.648872e+003,2.886316e+002
3.650801e+003,2.988542e+002
3.652729e+003,2.983349e+002
3.654657e+003,2.919068e+002
3.656586e+003,2.732406e+002
3.658514e+003,2.732898e+002
3.660443e+003,3.014878e+002
3.662371e+003,3.146095e+002
3.664300e+003,3.124662e+002
3.666228e+003,2.975544e+002
3.668157e+003,2.856213e+002
3.670085e+003,2.995876e+002
3.672014e+003,3.073084e+002
3.673942e+003,2.981708e+002
3.675871e+003,2.976848e+002
3.677799e+003,3.051025e+002
3.679728e+003,2.921485e+002
3.681656e+003,2.765178e+002
3.683584e+003,2.822303e+002
3.685513e+003,2.871115e+002
3.687441e+003,2.822017e+002
3.689370e+003,2.849792e+002
3.691298e+003,2.953765e+002
3.693227e+003,2.866860e+002
3.695155e+003,2.729981e+002
3.697084e+003,2.716047e+002
3.699012e+003,2.767490e+002
3.700941e+003,2.892508e+002
3.702869e+003,2.894852e+002
3.704798e+003,2.768433e+002
3.706726e+003,2.756678e+002
3.708655e+003,2.818004e+002
3.710583e+003,2.933936e+002
3.712511e+003,2.998284e+002
3.714440e+003,2.948860e+002
3.716368e+003,2.920945e+002
3.718297e+003,2.924670e+002
3.720225e+003,2.874549e+002
3.722154e+003,2.827866e+002
3.724082e+003,2.885887e+002
3.726011e+003,2.933659e+002
3.727939e+003,2.915009e+002
3.729868e+003,2.930221e+002
3.731796e+003,2.974992e+002
3.733725e+003,2.868717e+002
3.735653e+003,2.747631e+002
3.737582e+003,2.804494e+002
3.739510e+003,2.884690e+002
3.741438e+003,2.950520e+002
3.743367e+003,2.900397e+002
3.745295e+003,2.763272e+002
3.747224e+003,2.839963e+002
3.749152e+003,2.936497e+002
3.751081e+003,2.749018e+002
3.753009e+003,2.701726e+002
3.754938e+003,2.976707e+002
3.756866e+003,3.079604e+002
3.758795e+003,3.013020e+002
3.760723e+003,2.892219e+002
3.762652e+003,2.805191e+002
3.764580e+003,2.853391e+002
3.766509e+003,2.899009e+002
3.768437e+003,2.910870e+002
3.770365e+003,2.918199e+002
3.772294e+003,2.911779e+002
3.774222e+003,2.829895e+002
3.776151e+003,2.770384e+002
3.778079e+003,2.816716e+002
3.780008e+003,2.860554e+002
3.781936e+003,2.884854e+002
3.783865e+003,2.905687e+002
3.785793e+003,2.921076e+002
3.787722e+003,2.936100e+002
3.789650e+003,2.921309e+002
3.791579e+003,2.831393e+002
3.793507e+003,2.817353e+002
3.795436e+003,2.884933e+002
3.797364e+003,2.998297e+002
3.799292e+003,3.087061e+002
3.801221e+003,3.014566e+002
3.803149e+003,2.960999e+002
3.805078e+003,3.008107e+002
3.807006e+003,2.966136e+002
3.808935e+003,2.860472e+002
3.810863e+003,2.824065e+002
3.812792e+003,2.818672e+002
3.814720e+003,2.819842e+002
3.816649e+003,2.822414e+002
3.818577e+003,2.824641e+002
3.820506e+003,2.837693e+002
3.822434e+003,2.852405e+002
3.824363e+003,2.831684e+002
3.826291e+003,2.843612e+002
3.828219e+003,2.938038e+002
3.830148e+003,3.000945e+002
3.832076e+003,3.014358e+002
3.834005e+003,2.886282e+002
3.835933e+003,2.762101e+002
3.837862e+003,2.864178e+002
3.839790e+003,2.883429e+002
3.841719e+003,2.732271e+002
3.843647e+003,2.731849e+002
3.845576e+003,2.835430e+002
3.847504e+003,2.872993e+002
3.849433e+003,2.892975e+002
3.851361e+003,2.960294e+002
3.853290e+003,2.890570e+002
3.855218e+003,2.700733e+002
3.857146e+003,2.795417e+002
3.859075e+003,2.975749e+002
3.861003e+003,2.959041e+002
3.862932e+003,2.936664e+002
3.864860e+003,2.998285e+002
3.866789e+003,2.920016e+002
3.868717e+003,2.753871e+002
3.870646e+003,2.629724e+002
3.872574e+003,2.605482e+002
3.874503e+003,2.748162e+002
3.876431e+003,2.845164e+002
3.878360e+003,2.875075e+002
3.880288e+003,2.955424e+002
3.882217e+003,3.010785e+002
3.884145e+003,2.904872e+002
3.886073e+003,2.812898e+002
3.888002e+003,2.778955e+002
3.889930e+003,2.835878e+002
3.891859e+003,2.926325e+002
3.893787e+003,2.899141e+002
3.895716e+003,2.848277e+002
3.897644e+003,2.808341e+002
3.899573e+003,2.850884e+002
3.901501e+003,2.956503e+002
3.903430e+003,2.885858e+002
3.905358e+003,2.769961e+002
3.907287e+003,2.700791e+002
3.909215e+003,2.734816e+002
3.911144e+003,2.873798e+002
3.913072e+003,2.876343e+002
3.915000e+003,2.820992e+002
3.916929e+003,2.894857e+002
3.918857e+003,2.884719e+002
3.920786e+003,2.635598e+002
3.922714e+003,2.626683e+002
3.924643e+003,2.763795e+002
3.926571e+003,2.655112e+002
3.928500e+003,2.565112e+002
3.930428e+003,2.671377e+002
3.932357e+003,2.778700e+002
3.934285e+003,2.851637e+002
3.936214e+003,2.709217e+002
3.938142e+003,2.566891e+002
3.940071e+003,2.689298e+002
3.941999e+003,2.755646e+002
3.943927e+003,2.690377e+002
3.945856e+003,2.700038e+002
3.947784e+003,2.749769e+002
3.949713e+003,2.802830e+002
3.951641e+003,2.836711e+002
3.953570e+003,2.847106e+002
3.955498e+003,2.847818e+002
3.957427e+003,2.823372e+002
3.959355e+003,2.668306e+002
3.961284e+003,2.579794e+002
3.963212e+003,2.711031e+002
3.965141e+003,2.744882e+002
3.967069e+003,2.695684e+002
3.968998e+003,2.687375e+002
3.970926e+003,2.712143e+002
3.972854e+003,2.765043e+002
3.974783e+003,2.859688e+002
3.976711e+003,2.974968e+002
3.978640e+003,2.947190e+002
3.980568e+003,2.852450e+002
3.982497e+003,2.727713e+002
3.984425e+003,2.668887e+002
3.986354e+003,2.696544e+002
3.988282e+003,2.766249e+002
3.990211e+003,2.789422e+002
3.992139e+003,2.555489e+002
3.994068e+003,2.493512e+002
3.995996e+003,2.697677e+002
3.997925e+003,2.749135e+002
3.999853e+003,2.702662e+002
4.001781e+003,2.647611e+002
4.003710e+003,2.614518e+002
4.005638e+003,2.615960e+002
4.007567e+003,2.592866e+002
4.009495e+003,2.564748e+002
4.011424e+003,2.557813e+002
4.013352e+003,2.608677e+002
4.015281e+003,2.792022e+002
4.017209e+003,2.851378e+002
4.019138e+003,2.802664e+002
4.021066e+003,2.652789e+002
4.022995e+003,2.557818e+002
4.024923e+003,2.596043e+002
4.026852e+003,2.604404e+002
4.028780e+003,2.594249e+002
4.030708e+003,2.679930e+002
4.032637e+003,2.735782e+002
4.034565e+003,2.681169e+002
4.036494e+003,2.637486e+002
4.038422e+003,2.619468e+002
4.040351e+003,2.661453e+002
4.042279e+003,2.698288e+002
4.044208e+003,2.696290e+002
4.046136e+003,2.632585e+002
4.048065e+003,2.538500e+002
4.049993e+003,2.558668e+002
4.051922e+003,2.579096e+002
4.053850e+003,2.511624e+002
4.055779e+003,2.539083e+002
4.057707e+003,2.637772e+002
4.059635e+003,2.596995e+002
4.061564e+003,2.510548e+002
4.063492e+003,2.406034e+002
4.065421e+003,2.449168e+002
4.067349e+003,2.613219e+002
4.069278e+003,2.684554e+002
4.071206e+003,2.690280e+002
4.073135e+003,2.605994e+002
4.075063e+003,2.577967e+002
4.076992e+003,2.599865e+002
4.078920e+003,2.608445e+002
4.080849e+003,2.571787e+002
4.082777e+003,2.422839e+002
4.084706e+003,2.433319e+002
4.086634e+003,2.564607e+002
4.088563e+003,2.598447e+002
4.090491e+003,2.592690e+002
4.092419e+003,2.587623e+002
4.094348e+003,2.500988e+002
4.096276e+003,2.377639e+002
4.098205e+003,2.451186e+002
4.100133e+003,2.528643e+002
4.102062e+003,2.494595e+002
4.103990e+003,2.502936e+002
4.105919e+003,2.535191e+002
4.107847e+003,2.483550e+002
4.109776e+003,2.436317e+002
4.111704e+003,2.453627e+002
4.113633e+003,2.427279e+002
4.115561e+003,2.395791e+002
4.117490e+003,2.464451e+002
4.119418e+003,2.557931e+002
4.121347e+003,2.663698e+002
4.123275e+003,2.539494e+002
4.125204e+003,2.319579e+002
4.127132e+003,2.235467e+002
4.129061e+003,2.305107e+002
4.130989e+003,2.528795e+002
4.132917e+003,2.546263e+002
4.134846e+003,2.451918e+002
4.136774e+003,2.370081e+002
4.138703e+003,2.360654e+002
4.140631e+003,2.439246e+002
4.142560e+003,2.493835e+002
4.144488e+003,2.523954e+002
4.146417e+003,2.533996e+002
4.148345e+003,2.500506e+002
4.150273e+003,2.424054e+002
4.152202e+003,2.403578e+002
4.154130e+003,2.409733e+002
4.156059e+003,2.442605e+002
4.157987e+003,2.392440e+002
4.159916e+003,2.288256e+002
4.161844e+003,2.387399e+002
4.163773e+003,2.501116e+002
4.165701e+003,2.499038e+002
4.167630e+003,2.499349e+002
4.169558e+003,2.481904e+002
4.171487e+003,2.319017e+002
4.173415e+003,2.233600e+002
4.175344e+003,2.327982e+002
4.177272e+003,2.349073e+002
4.179201e+003,2.322185e+002
4.181129e+003,2.306389e+002
4.183058e+003,2.334279e+002
4.184986e+003,2.409853e+002
4.186915e+003,2.476816e+002
4.188843e+003,2.489321e+002
4.190771e+003,2.346379e+002
4.192700e+003,2.312217e+002
4.194628e+003,2.416558e+002
4.196557e+003,2.512816e+002
4.198485e+003,2.545559e+002
4.200414e+003,2.462074e+002
4.202342e+003,2.329492e+002
4.204271e+003,2.193144e+002
4.206199e+003,2.247039e+002
4.208127e+003,2.279989e+002
4.210056e+003,2.167145e+002
4.211984e+003,2.163457e+002
4.213913e+003,2.232152e+002
4.215841e+003,2.308953e+002
4.217770e+003,2.345369e+002
4.219698e+003,2.322215e+002
4.221627e+003,2.316907e+002
4.223555e+003,2.332517e+002
4.225484e+003,2.399796e+002
4.227412e+003,2.416769e+002
4.229341e+003,2.373426e+002
4.231269e+003,2.260305e+002
4.233198e+003,2.202645e+002
4.235126e+003,2.347456e+002
4.237055e+003,2.367580e+002
4.238983e+003,2.302568e+002
4.240912e+003,2.250075e+002
4.242840e+003,2.261487e+002
4.244769e+003,2.367509e+002
4.246697e+003,2.371191e+002
4.248625e+003,2.334359e+002
4.250554e+003,2.335573e+002
